0.000423848808629854
0.00498694323449639
0.0291276432009786
0.113710220512456
0.336771625533194
0.813422598355291
1.68023037741881
3.07014957022317
5.08803141768559
7.79295417799108
11.1885097886218
15.2203737141110
19.7810947816880
24.7229621074333
29.8785773301696
35.0846845671116
40.2022191580497
45.1281644827524
49.7996267942221
54.1925278486285
58.3163873711953
62.2063953508187
65.9153601164370
69.5080073509250
73.0565275026635
76.6327166012660
80.2942465013675
84.0695824622816
87.9487561133076
91.8819871658445
95.7832183355121
99.5366755890127
103.007541909233
106.058579295219
108.572292070182
110.473693635666
111.746110420003
112.435440742755
112.644001419277
112.518119149710
112.232823987184
111.975712233416
111.932472989517
112.276279274879
113.159923221938
114.706397531350
116.995784237708
120.052327949685
123.837501468447
128.250684361005
133.135486179140
138.290126998019
143.481997619125
148.467700150986
153.018839800771
156.949392051446
160.136754315915
162.530919029828
164.152636423102
165.085023466375
165.461528119951
165.451220839389
165.243376376414
165.034101681055
165.014876583665
165.359092912202
166.204183892227
167.633296239687
169.663433073359
172.243289266824
175.259434692729
178.548116779739
181.910816335642
185.133793805900
188.012337258365
190.376346864583
192.109861017801
193.159544932889
193.533448958726
193.294253937556
192.549309316087
191.437970595601
190.118001319590
188.753817586776
187.506520775200
186.521813790441
185.913495985528
185.746648966489
186.027104571411
186.699557744221
187.652516607304
188.728145092286
189.736747361636
190.476658714848
190.758851151031
190.431679947823
189.398952063376
187.627029150176
185.141629641405
182.017953878151
178.367395340347
174.323186723084
170.027772259958
165.624044373742
161.248929985045
157.024408194747
153.043162108019
149.352783317804
145.945459605718
142.756207988581
139.668342624944
136.524002084613
133.138632773811
129.320032283317
124.892434454014
119.721897585316
113.735192240808
106.926534366139
99.3531868418581
91.1249060253775
82.3907784360461
73.3248642281042
64.1126005060381
54.9400594804985
45.9851213276967
37.4065839262380
29.3291906667758
21.8282842998940
14.9200152934467
8.55945349256585
2.64541464823961
-2.96937781129422
-8.46311262908900
-14.0242395643097
-19.8261145054620
-26.0019253537034
-32.6274621721035
-39.7155824995787
-47.2200040409523
-55.0441860948716
-63.0533223034736
-71.0883741137332
-78.9794404100346
-86.5557597781845
-93.6533325890888
-100.124806268960
-105.854378635525
-110.774040772461
-114.874702468299
-118.209545844178
-120.890745194692
-123.080445645567
-124.975412738455
-126.784742735846
-128.702531453395
-130.881529622693
-133.415023423880
-136.330198620331
-139.591141077862
-143.107915274876
-146.749498723605
-150.359055190544
-153.768726245267
-156.811089621672
-159.328117308489
-161.182150541690
-162.271275656747
-162.545212787828
-162.015666369985
-160.758747216584
-158.910268161816
-156.655018986532
-154.210655035520
-151.806230741127
-149.656358957184
-147.935804911533
-146.761470504617
-146.185171594819
-146.195087963444
-146.722070605141
-147.649267964347
-148.824981718985
-150.076995521336
-151.225344920769
-152.093024881885
-152.518201442403
-152.370940945692
-151.571238836828
-150.101310961868
-148.008481342168
-145.399700945101
-142.430158580602
-139.287904595583
-136.174673533380
-133.282489383040
-130.769175942432
-128.739572770370
-127.237395961581
-126.247207332589
-125.702725995347
-125.498599783783
-125.504069904596
-125.575987929523
-125.568417021789
-125.339577068855
-124.760879617629
-123.731180709111
-122.192768975264
-120.142281614736
-117.633214202765
-114.771140679356
-111.703937915454
-108.608308808382
-105.672119871951
-103.072028878917
-100.949595425257
-99.3924648533514
-98.4255434100440
-98.0124357001783
-98.0644332482328
-98.4540441915507
-99.0302744797240
-99.6324949338466
-100.100639238526
-100.282875370787
-100.044980392310
-99.2840750073292
-97.9437328767931
-96.0244762388574
-93.5863789898926
-90.7442759693432
-87.6574759837485
-84.5153197412355
-81.5181734972448
-78.8535118365879
-76.6708690008015
-75.0631539956890
-74.0597472374601
-73.6305697628209
-73.6963121225956
-74.1411250016100
-74.8261695064970
-75.6019594517579
-76.3174409872992
-76.8271808391091
-77.0012366403347
-76.7397436449186
-75.9879216872433
-74.7452902226818
-73.0671279942808
-71.0599366369361
-68.8725430296074
-66.6829067001993
-64.6795705079968
-63.0377647528268
-61.8944155496374
-61.3295684848048
-61.3592942403455
-61.9391088004858
-62.9735714816025
-64.3289299584458
-65.8471798591210
-67.3591171531660
-68.6941687359370
-69.6883750218652
-70.1950430066344
-70.1001342421784
-69.3384287552473
-67.9044296590184
-65.8553718035952
-63.3070678851987
-60.4240788258792
-57.4049117490894
-54.4615370462678
-51.7934878240225
-49.5615923324770
-47.8692139901727
-46.7551860307749
-46.1966798780359
-46.1179969776552
-46.4028701270483
-46.9090417871035
-47.4825407031136
-47.9685587791019
-48.2192911135685
-48.1033095048125
-47.5196759800300
-46.4135102999155
-44.7865445191520
-42.6997372586701
-40.2689977152176
-37.6554447415671
-35.0505468604953
-32.6559243812840
-30.6588996681367
-29.2084070180101
-28.3978438920193
-28.2584676140466
-28.7618030444225
-29.8275153653913
-31.3347883987030
-33.1360248945114
-35.0699889640327
-36.9712838612131
-38.6770002067371
-40.0356604471647
-40.9220672862781
-41.2550285335164
-41.0111653522760
-40.2306387916498
-39.0146430189015
-37.5160067837394
-35.9239054769069
-34.4426577059425
-33.2651713514571
-32.5456905826648
-32.3798020034894
-32.7967558424770
-33.7625937600764
-35.1893199874565
-36.9471850489605
-38.8791542872742
-40.8154674741386
-42.5854094456471
-44.0265858633109
-44.9957253099714
-45.3834263037139
-45.1295444699347
-44.2336564455145
-42.7581029729429
-40.8240277839911
-38.6014404835663
-36.2940329812227
-34.1185249520816
-32.2789074091310
-30.9399881351151
-30.2077630021153
-30.1214933758014
-30.6563302022397
-31.7321139847782
-33.2256031409169
-34.9852291516189
-36.8459500803126
-38.6407188690040
-40.2087364877760
-41.4053173284165
-42.1168139915070
-42.2771895685673
-41.8791481656964
-40.9762126595988
-39.6771456054956
-38.1355428408670
-36.5356647112299
-35.0732926062358
-33.9314168250164
-33.2554359591549
-33.1353243455841
-33.5988555194230
-34.6144767525223
-36.1001825084951
-37.9357261188494
-39.9762478487989
-42.0647101445133
-44.0409406327236
-45.7483761294713
-47.0431230767530
-47.8085059049933
-47.9720360258612
-47.5182162006581
-46.4932456962802
-45.0015494852109
-43.1956452938878
-41.2608503065352
-39.3952903565654
-37.7857412786957
-36.5830960354423
-35.8841436319463
-35.7240892540769
-36.0788035147340
-36.8730957575051
-37.9927740969598
-39.2993495585917
-40.6444617509158
-41.8802994771668
-42.8659872764170
-43.4748439259756
-43.6067460121153
-43.2031783587866
-42.2582619195385
-40.8218023235384
-38.9951341632214
-36.9221094547984
-34.7761701746762
-32.7424570552523
-30.9948164757842
-29.6721577872932
-28.8613748674432
-28.5907476834044
-28.8322231713819
-29.5090613648801
-30.5071089373372
-31.6888094989833
-32.9070740800612
-34.0154489666102
-34.8749877775719
-35.3629263128696
-35.3866872777696
-34.8995172731460
-33.9104234109892
-32.4850964652380
-30.7395956030526
-28.8295644671731
-26.9360947684179
-25.2474181838744
-23.9360865004742
-23.1356232070767
-22.9238578322449
-23.3170290908280
-24.2727512162078
-25.6979273781186
-27.4599327168905
-29.4005416784707
-31.3499707034475
-33.1374096088066
-34.5983128626272
-35.5836505233563
-35.9748697263969
-35.7010648320608
-34.7511557938151
-33.1774722651351
-31.0915771599464
-28.6541817801973
-26.0602384282783
-23.5189936343042
-21.2291169126024
-19.3532065369522
-17.9993293704025
-17.2140296823088
-16.9848862417921
-17.2483103674072
-17.9004712772767
-18.8108137249806
-19.8359927453863
-20.8310182844327
-21.6574921667222
-22.1927289355781
-22.3422587271694
-22.0526507596407
-21.3195397763474
-20.1891667364083
-18.7545765583703
-17.1475135329668
-15.5263100280785
-14.0589652687178
-12.9007789346259
-12.1700805059082
-11.9296292813310
-12.1789921217477
-12.8572609869833
-13.8527330068621
-15.0172286647816
-16.1828316505598
-17.1770396614980
-17.8330183143836
-17.9964027743257
-17.5339301568556
-16.3468428932933
-14.3856285509605
-11.6600272938419
-8.24152248601410
-4.25908618487756
0.110419031312295
4.65653850841036
9.15462954269357
13.3902344102156
17.1845107174145
20.4136667361571
23.0176553470245
24.9990577134690
26.4159928329661
27.3714555054060
28.0003057039384
28.4564157970276
28.9023008065499
29.4997674696607
30.3970829415019
31.7109643457472
33.5080760406197
35.7928316339680
38.5041553655854
41.5196612623116
44.6653410283203
47.7303404146870
50.4872880626931
52.7175320702312
54.2372930762209
54.9181121523575
54.6966695957550
53.5741038816160
51.6084507462140
48.9032077673873
45.5935707764598
41.8328448688843
37.7820703877870
33.6024036764065
29.4457429328888
25.4409154491941
21.6789552877481
18.2033261665923
15.0072784294212
12.0370477476468
9.19950763726371
6.37403620450964
3.42923415183924
0.244172450685631
-3.26997868976843
-7.15469002757871
-11.3990074375760
-15.9429835897356
-20.6858610845683
-25.4973128059729
-30.2310568969845
-34.7378121155943
-38.8737304762263
-42.5050241800214
-45.5146181157142
-47.8147780038905
-49.3622519140689
-50.1687771164942
-50.3033136911578
-49.8870581302898
-49.0835309548086
-48.0848873182160
-47.0939173252857
-46.3013750315583
-45.8621021186208
-45.8768956291301
-46.3849784183659
-47.3664144032878
-48.7509347417482
-50.4305606369986
-52.2740390443909
-54.1397786775098
-55.8843563364331
-57.3679291068782
-58.4618872706541
-59.0620950140942
-59.1043262215864
-58.5752702933948
-57.5158987850486
-56.0179493573711
-54.2151526355365
-52.2704019039203
-50.3589441139759
-48.6474198933530
-47.2717923808298
-46.3205774767542
-45.8279146364851
-45.7755487649078
-46.1000491810731
-46.7031194984133
-47.4639967518066
-48.2515587155466
-48.9335121103274
-49.3833556379261
-49.4893864082391
-49.1683473916543
-48.3800572803234
-47.1364819232420
-45.5025570289360
-43.5906851665571
-41.5513966716498
-39.5605802214991
-37.8019053669634
-36.4441572529461
-35.6176183414458
-35.3966989736964
-35.7932883634429
-36.7595317354525
-38.1961523925945
-39.9642979897506
-41.9003470859730
-43.8311723427296
-45.5861417985500
-47.0057861346546
-47.9515886399367
-48.3196410333639
-48.0544628095350
-47.1571389961707
-45.6862444337094
-43.7537201131606
-41.5173279547967
-39.1692333575568
-36.9189491527388
-34.9700630609468
-33.4944727306811
-32.6109736122302
-32.3730683855182
-32.7662208881952
-33.7119829637774
-35.0766888862831
-36.6830090134476
-38.3213373149608
-39.7575591017839
-40.7375448519658
-40.9933614293996
-40.2549342223599
-38.2645115380212
-34.7883350398796
-29.6232850824396
-22.5997691237008
-13.5819228283204
-2.46422230585918
10.8374370234227
26.3998314198138
44.3061597526021
64.6516830957661
87.5377069035817
113.056836826323
141.274537574595
172.209063503906
205.810135088465
241.939524337782
280.358159889737
320.720226135426
362.570115237959
405.339557953593
448.347943956529
490.810711647107
531.856880543277
570.553549623584
605.935579001946
637.040759277075
662.952281762246
682.848196114418
696.051672673174
702.072206297763
700.630781923864
691.668616769532
675.343203981520
652.014667401270
622.224036634815
586.666547381251
546.164221279948
501.638426499333
454.078094266668
404.500637197403
353.909763897465
303.257419256111
253.413287777985
205.142001556058
159.088388966279
115.771752661738
75.5900949794691
38.8336816372310
5.70351933267852
-23.6721516522796
-49.2276084182237
-70.9548465960654
-88.9012587348873
-103.168279603428
-113.910452205130
-121.332767399932
-125.683874827375
-127.246655286960
-126.331408862299
-123.274754575628
-118.440981188139
-112.220075967979
-105.020378874492
-97.2576222782345
-89.3423226980059
-81.6657599906743
-74.5830317776819
-68.3925264960625
-63.3155339620074
-59.4826695034642
-56.9311230649493
-55.6115498886552
-55.4011937280672
-56.1210342118523
-57.5553799179139
-59.4709613126111
-61.6322772339297
-63.8131277628146
-65.8084731869757
-67.4500161720339
-68.6227258158134
-69.2760683160672
-69.4268116276263
-69.1541601382570
-68.5888722051196
-67.8974870951357
-67.2619281548882
-66.8551662498120
-66.8169358467508
-67.2361246774628
-68.1439098979768
-69.5162790840224
-71.2820326179164
-73.3338743313319
-75.5414216117493
-77.7634681050277
-79.8563652973049
-81.6793242287237
-83.1019989806874
-84.0181319027549
-84.3619321830524
-84.1201494836908
-83.3364264781812
-82.1088862533404
-80.5822605141768
-78.9346463828977
-77.3584059021659
-76.0360017205698
-75.1155909173762
-74.6937114468499
-74.8088904563455
-75.4441877399813
-76.5348124039426
-77.9787738689161
-79.6493569326179
-81.4066944138592
-83.1056064196870
-84.6008641142281
-85.7553236721118
-86.4543101422756
-86.6224165881115
-86.2357738385173
-85.3265268584281
-83.9801694246900
-82.3273017121473
-80.5308444165019
-78.7684619825292
-77.2100493888351
-75.9937541790208
-75.2073575155506
-74.8800989622136
-74.9848975797026
-75.4475880982104
-76.1599004153275
-76.9935607943869
-77.8123587294305
-78.4797282156882
-78.8633084709023
-78.8420246740644
-78.3195532600532
-77.2408100945684
-75.6040259536447
-73.4643202496094
-70.9294295128169
-68.1496238952407
-65.3030287264007
-62.5764089959691
-60.1421866619580
-58.1358965590440
-56.6404552119970
-55.6809035116865
-55.2280586463990
-55.2070392852962
-55.5083037713100
-56.0003081119979
-56.5413502810227
-56.9876138238325
-57.1986248069692
-57.0459217299903
-56.4281640953646
-55.2880098068166
-53.6232018737089
-51.4889317653733
-48.9927320249108
-46.2834381692790
-43.5353986386410
-40.9287508993565
-38.6265185916245
-36.7520777612321
-35.3735590097651
-34.4993087027496
-34.0825892440210
-34.0312683692566
-34.2201792195839
-34.5049536890296
-34.7348821904132
-34.7623002974934
-34.4491189744698
-33.6747459886120
-32.3486867777765
-30.4251055347273
-27.9129136891756
-24.8777229092051
-21.4363952336750
-17.7467256541642
-13.9940092488471
-10.3737144201328
-7.06896863244906
-4.22614568541298
-1.93634954087408
-0.228337299231209
0.928071239878985
1.61235401733114
1.94032979494096
2.04970193921984
2.08708945954161
2.19920672931465
2.52677822508778
3.19597261564546
4.30447411146934
5.90625797396044
8.00181074869441
10.5363083934110
13.4043103306845
16.4594614102289
19.5286242719007
22.4305437889316
24.9986297380716
27.1039136327777
28.6713401773055
29.6854689650161
30.1874165026316
30.2667550093811
30.0500117370564
29.6867135739716
29.3359619324350
29.1567365729186
29.3011286489141
29.9057187737601
31.0779860144498
32.8810452432391
35.3232025465629
38.3551199365599
41.8731497446790
45.7275797089850
49.7362576629967
53.7042278155368
57.4480687090142
60.8201306152405
63.7261554278662
66.1325558128198
68.0643641416664
69.5970675088393
70.8444970700988
71.9442605117856
73.0439306346983
74.2914004095900
75.8283242285663
77.7813193666855
80.2483322302494
83.2844706315398
86.8934805593540
91.0265498472290
95.5863536064927
100.434562297883
105.402966012695
110.309689226944
114.980856337962
119.273853372842
123.095045897084
126.406932948516
129.225406218189
131.611208307025
133.658638795003
135.482936564123
137.208569940428
138.960862950609
140.860034170999
143.013153112842
145.501361487492
148.365823983861
151.598465418589
155.140126522861
158.884976200865
162.689206491499
166.383063145056
169.787158571062
172.734253523193
175.093515974934
176.789614916436
177.810666020753
178.205512561616
178.074322950891
177.555174933730
176.808442255836
176.002226827480
175.301850235346
174.862565502140
174.820780289964
175.280724177999
176.299915739180
177.879634025251
179.962839545047
182.438236447631
185.148987498329
187.905714254685
190.504649591856
192.751265902555
194.485459601089
195.600606956729
196.050932213033
195.848052115546
195.051809113285
193.759195645304
192.092237577249
190.185930485763
188.178490196282
186.203742325643
184.381549473254
182.803612657869
181.518590682325
180.523226656384
179.761852496591
179.132050860755
178.493641684558
177.680059424761
176.513548082944
174.825328368174
172.477696465622
169.381791791923
165.506744301538
160.880124324457
155.581410006269
149.729803190942
143.468547086332
136.949977967491
130.324976223661
123.735944248674
117.308333946692
111.137768168308
105.276419757615
99.7247899009142
94.4309344018314
89.2954717713820
84.1806408327803
78.9228038849520
73.3491372360062
67.2991366788167
60.6477204610068
53.3231359793563
45.3149552825741
36.6726595521810
27.4978399150440
17.9321782862680
8.14277274560999
-1.69225484472492
-11.3946268635088
-20.7936716904419
-29.7357053965033
-38.0981202558531
-45.8045343720972
-52.8345335276074
-59.2255209310517
-65.0680957315980
-70.4965552392261
-75.6750902834934
-80.7792583768619
-85.9727582776475
-91.3834289700771
-97.0857916515925
-103.094802650100
-109.369467517117
-115.822274948655
-122.331961510879
-128.758239793641
-134.955656929157
-140.783322792200
-146.110981609528
-150.826194844545
-154.845729531179
-158.127989838618
-160.681058060707
-162.564306611110
-163.884386169183
-164.786560856637
-165.442014446857
-166.031110358341
-166.722657927895
-167.652368478044
-168.906852628258
-170.517360245040
-172.462042380024
-174.673151799548
-177.047253868844
-179.457723465592
-181.767345638084
-183.838171408443
-185.538875023751
-186.753479112826
-187.393951915841
-187.413668657728
-186.816337066304
-185.658133713083
-184.043932010740
-182.118791768003
-180.055287392826
-178.036307482472
-176.233190319522
-174.782993733755
-173.772233626151
-173.231526273014
-173.139199802390
-173.429550729588
-174.003684632071
-174.742115037741
-175.516374369056
-176.196522131248
-176.655788373033
-176.777992758532
-176.470944554625
-175.681619301156
-174.406231796636
-172.692859469675
-170.638197627320
-168.379642699840
-166.082632663092
-163.922690931276
-162.062537627415
-160.628339883604
-159.692423026894
-159.267475463224
-159.311082230049
-159.735810329785
-160.421487580889
-161.228461958251
-162.009900834809
-162.620510458479
-162.922210862479
-162.791474818436
-162.131786515587
-160.888238806975
-159.057833169420
-156.692192239494
-153.893626579181
-150.806578098832
-147.605397988701
-144.477671857241
-141.602264054764
-139.125137959935
-137.140109558622
-135.680335784375
-134.720632672054
-134.186690757580
-133.967759560247
-133.931057026792
-133.935431899559
-133.841144043895
-133.516033954166
-132.842875439988
-131.731271989058
-130.131024595376
-128.041366791233
-125.513815357289
-122.649190251460
-119.589471978651
-116.504824409772
-113.575596397953
-110.969734452982
-108.819479041450
-107.204042425645
-106.142909216279
-105.599106060742
-105.488562816537
-105.692671782078
-106.072579682713
-106.482495316803
-106.778758141921
-106.825365136302
-106.501300608939
-105.713181054673
-104.409751380465
-102.591962421103
-100.315912032745
-97.6891871846083
-94.8617322016561
-92.0122299154561
-89.3298548096444
-86.9911537186501
-85.1358642085105
-83.8490628609096
-83.1541186473208
-83.0150690902678
-83.3450503360875
-84.0189910031274
-84.8889850678096
-85.7987942356705
-86.5940370707389
-87.1288850747928
-87.2742908655777
-86.9307620061703
-86.0420543032307
-84.6039308795248
-82.6662402738650
-80.3296372309237
-77.7377186806285
-75.0644973334687
-72.4968108970794
-70.2120480286720
-68.3549749349849
-67.0202151827228
-66.2446379985401
-66.0087020601635
-66.2432472832826
-66.8395514918735
-67.6618344351743
-68.5602106822129
-69.3811350477858
-69.9752082213510
-70.2064070747737
-69.9658458290436
-69.1868708212191
-67.8552152523386
-66.0118197917075
-63.7499157616817
-61.2076507434792
-58.5558558651084
-55.9799470792154
-53.6566765673816
-51.7307412352365
-50.2983205913120
-49.4007770581788
-49.0264348281142
-49.1171431544587
-49.5783097344598
-50.2916651635144
-51.1279962355203
-51.9563815004472
-52.6499035255778
-53.0921375115704
-53.1881160310442
-52.8777761439270
-52.1461652699786
-51.0271086726993
-49.6010926026024
-47.9890115729746
-46.3418121115860
-44.8244141856741
-43.5935332490798
-42.7739896651859
-42.4413972201913
-42.6158856402936
-43.2652847603000
-44.3134551928239
-45.6510291276612
-47.1473953377909
-48.6619144224363
-50.0520404500537
-51.1791618118258
-51.9167057501082
-52.1635961010749
-51.8597416273945
-50.9968819803088
-49.6216409250536
-47.8318927722677
-45.7680725978133
-43.6001011851987
-41.5096657942151
-39.6678612032662
-38.2119393808185
-37.2285106224180
-36.7477459194040
-36.7467121262395
-37.1577515195241
-37.8800225496578
-38.7928816303379
-39.7676348512145
-40.6744842693367
-41.3863171125658
-41.7851681222763
-41.7747172895179
-41.2952514361803
-40.3346249165057
-38.9320978753566
-37.1754689436145
-35.1928003292827
-33.1399629711005
-31.1841726201746
-29.4831960998273
-28.1631755433097
-27.3015611145903
-26.9197176723180
-26.9846736348129
-27.4170817265074
-28.1032939568555
-28.9098636623914
-29.6974660063993
-30.3310378685380
-30.6863486023432
-30.6574523277349
-30.1683104660279
-29.1854718053858
-27.7257166438982
-25.8564012023266
-23.6903365863734
-21.3772583416103
-19.0922310958886
-17.0196658722579
-15.3323103450761
-14.1689151086317
-13.6175340717611
-13.7086813913708
-14.4171432851393
-15.6692941699506
-17.3542905209520
-19.3377839638943
-21.4745909941199
-23.6166639744876
-25.6176727767679
-27.3404919616142
-28.6712869309471
-29.5357967010354
-29.9104603265139
-29.8257435859874
-29.3632481573551
-28.6481335664240
-27.8368857807344
-27.0993028864300
-26.5947556572007
-26.4474703339041
-26.7287637529579
-27.4510694271685
-28.5723768808495
-30.0063881283531
-31.6348697162005
-33.3209611929786
-34.9220534333495
-36.2996185800311
-37.3253613965038
-37.8877317083214
-37.9030331953649
-37.3287933701566
-36.1728290890707
-34.4951075007029
-32.4039531547061
-30.0480304380304
-27.6039018986020
-25.2582756048305
-23.1852571091830
-21.5229992791559
-20.3570945818775
-19.7149230957983
-19.5692041216129
-19.8468405903486
-20.4407076434152
-21.2227706035240
-22.0559417538278
-22.8024333963065
-23.3296728795248
-23.5181258047317
-23.2735905440589
-22.5407544708193
-21.3125009378536
-19.6325428949276
-17.5919958771172
-15.3211967433888
-12.9775780050450
-10.7290202463873
-8.73237868776376
-7.11094102437148
-5.93797914067630
-5.23122532694242
-4.95723929849682
-5.04128020031435
-5.37933083169776
-5.85053381528643
-6.32790021938046
-6.68545654832443
-6.80329722854578
-6.57511455488194
-5.92071404389006
-4.79999833129950
-3.22241346107637
-1.24933303725781
1.00951512728224
3.40403213485010
5.75576353987811
7.87515667590342
9.58469288246992
10.7437669218110
11.2672419491851
11.1323286705381
10.3750754620997
9.08124996537122
7.37500457630762
5.40665364547661
3.34087775747488
1.34694520116175
-0.409283540862334
-1.77472250404274
-2.62230393216110
-2.86547717771262
-2.46850224589020
-1.44984801992221
0.120720310111453
2.13000944351378
4.43325273564704
6.87012667462217
9.28503584585046
11.5482859660919
13.5718739363526
15.3160597008500
16.7879147040689
18.0350210666170
19.1359950718510
20.1888575647948
21.2999945028378
22.5767273177021
24.1227316320380
26.0313085405877
28.3731352548666
31.1820525210940
34.4457599026304
38.1041784679837
42.0535039555339
46.1537161555264
50.2395635024021
54.1368310324699
57.6843809944645
60.7574404679535
63.2841904741418
65.2505250638843
66.6939284780609
67.6910380789848
68.3429811214039
68.7611071060657
69.0556631129008
69.3291094679854
69.6722125439125
70.1579257968527
70.8303390924940
71.6923352868481
72.6981246640474
73.7529932420559
74.7188531535905
75.4241459453545
75.6777771912207
75.2875043205605
74.0825480504813
71.9367120721834
68.7854153439823
64.6325014787959
59.5479393688087
53.6595767684499
47.1405660274896
40.1935074586014
33.0343658244509
25.8799130896040
18.9387484349425
12.4013388095544
6.42580795420059
1.12287138904489
-3.45373136711992
-7.30904313686862
-10.5029693829440
-13.1428985505136
-15.3730862639040
-17.3589468473601
-19.2653642749175
-21.2332321149425
-23.3617992748185
-25.7011423340974
-28.2531466288994
-30.9772001925592
-33.7987974969801
-36.6204762877289
-39.3328111874393
-41.8225818101757
-43.9787093672552
-45.7003744957917
-46.9099385647716
-47.5670985294869
-47.6782101144754
-47.2982689270835
-46.5267471513942
-45.4992988293171
-44.3764538834942
-43.3283763744058
-42.5144156490905
-42.0605791061934
-42.0425759670726
-42.4800018164609
-43.3406158391534
-44.5499068390517
-46.0026117443887
-47.5750304683583
-49.1363953278074
-50.5571176022210
-51.7147025030698
-52.5014306617653
-52.8362458144351
-52.6776464907516
-52.0317531747828
-50.9528836291736
-49.5381306557012
-47.9187223522506
-46.2494775745833
-44.6947946969646
-43.4092511903446
-42.5157648607626
-42.0887953215013
-42.1477277989312
-42.6596048139209
-43.5477480115600
-44.7038665599832
-46.0016517526207
-47.3087254840477
-48.4944754046007
-49.4352897217986
-50.0221513917675
-50.1731132779189
-49.8467293985748
-49.0503869662010
-47.8414496488533
-46.3227219235738
-44.6339088242452
-42.9393875946137
-41.4112397167050
-40.2074034577365
-39.4492257385324
-39.2056706774396
-39.4883188781820
-40.2556609298141
-41.4229419396856
-42.8750533993486
-44.4807692959899
-46.1056790851588
-47.6214431555492
-48.9122105599854
-49.8820054511604
-50.4650128686256
-50.6351410745187
-50.4093382727765
-49.8432823614840
-49.0220722808015
-48.0485858204839
-47.0298782616821
-46.0595729040475
-45.1949462301681
-44.4326754431325
-43.6910872949791
-42.8037297176160
-41.5228882557916
-39.5293175501395
-36.4464889240431
-31.8588813808372
-25.3321182982019
-16.4316910351903
-4.73980602034706
10.1257566044342
28.4872482884270
50.5798548502158
76.5290821366682
106.336971191017
139.876617548725
176.892728316408
217.007109209197
259.730358247051
304.481046342095
350.609203908637
397.417611983440
444.177437284681
490.140003159931
534.547743310387
576.645064881998
615.688580391883
650.957993786329
681.770568682175
707.499436541961
727.591141144347
741.577981670877
749.086546686285
749.846644413386
743.701449013375
730.616956100368
710.689812457427
684.153917849597
651.386756513472
612.915381720068
569.417943096809
521.714072312899
470.741259777260
417.520716757942
363.118490766926
308.605587956689
255.019220785865
203.328021793468
154.403935140086
109.000147979052
67.7311219805106
31.0527542985841
-0.753259096490139
-27.5848272415580
-49.5132133015265
-66.7676811379599
-79.7132753571160
-88.8225455031796
-94.6410512460717
-97.7473002459848
-98.7121468568235
-98.0658937526668
-96.2779649436772
-93.7477924329893
-90.8029202071142
-87.7016322729158
-84.6388005928126
-81.7529309329019
-79.1318618438872
-76.8175286135684
-74.8143972589274
-73.1048151842992
-71.6675963118874
-70.4928793890036
-69.5901670401337
-68.9906835897879
-68.7457198540293
-68.9211718663916
-69.5867044700282
-70.7987650809942
-72.5817262728091
-74.9151063757627
-77.7314499812841
-80.9230699939951
-84.3534543537119
-87.8705313876533
-91.3196968907611
-94.5538615970003
-97.4388366105416
-99.8560784622578
-101.707616817289
-102.925570998515
-103.482877849011
-103.399872482632
-102.744700267976
-101.628756864339
-100.198860258603
-98.6265876120453
-97.0931188165927
-95.7684083849585
-94.7885015630231
-94.2384995686439
-94.1457185247231
-94.4819263040326
-95.1713471923493
-96.1024500560376
-97.1422725327905
-98.1504766563989
-98.9898903358419
-99.5336987706233
-99.6730593830339
-99.3274342862128
-98.4551045160094
-97.0598672551340
-95.1927958036570
-92.9500100300891
-90.4668548143743
-87.9076947476605
-85.4498075601928
-83.2614021952631
-81.4784323253755
-80.1878143440786
-79.4213683063617
-79.1586528160399
-79.3344609738305
-79.8489768346784
-80.5800822083242
-81.3953700440993
-82.1607364264636
-82.7464133040618
-83.0351429965486
-82.9346893059908
-82.3907504269161
-81.3948493688795
-79.9857427714117
-78.2459061343505
-76.2944790874810
-74.2768211840576
-72.3494705474548
-70.6597829813888
-69.3237822261577
-68.4095364389343
-67.9311792691349
-67.8528323282279
-68.0984844731933
-68.5644184583609
-69.1315306754036
-69.6749380233638
-70.0698269220957
-70.1960378850963
-69.9462461506523
-69.2396017780176
-68.0359652182554
-66.3437702816780
-64.2196574910690
-61.7627759913841
-59.1062818215322
-56.4060025647621
-53.8246665471520
-51.5114020787650
-49.5807178199759
-48.0980751297014
-47.0758854032448
-46.4776750854888
-46.2260974362232
-46.2131039167302
-46.3122195142044
-46.3909965636433
-46.3207177826942
-45.9835119239143
-45.2805508246004
-44.1432384717568
-42.5439103420272
-40.5012211309059
-38.0793232133348
-35.3827765048694
-32.5485364605120
-29.7349655170515
-27.1067592601941
-24.8152224668708
-22.9771261849108
-21.6587993274840
-20.8699677181145
-20.5664746823642
-20.6586572210604
-21.0234382120537
-21.5186161813170
-21.9960738053689
-22.3107360633423
-22.3262569966641
-21.9223712561327
-21.0069088721573
-19.5291173733095
-17.4882959002928
-14.9352969661997
-11.9682150209302
-8.72410929426436
-5.36722419598468
-2.07233284784182
0.997457998655538
3.71408767977870
6.00107110226971
7.83856663324741
9.25905193473664
10.3382733281417
11.1839159090961
11.9226624491784
12.6878921871593
13.6111601085427
14.8166896851242
16.4136989536289
18.4838267645196
21.0679913761885
24.1589812600192
27.7014206256111
31.5969834263619
35.7128286641842
39.8926345438053
43.9711393163741
47.7930831568130
51.2338297053193
54.2152879021398
56.7124690031065
58.7513419269669
60.4014167644207
61.7653568802458
62.9669718746614
64.1400483882622
65.4204192143029
66.9400718148351
68.8185395449668
71.1491245946161
73.9840925950876
77.3252832978460
81.1225765404053
85.2788280782185
89.6591552236621
94.1032967661818
98.4417471062437
102.516645611387
106.203958524142
109.429423217377
112.173578853314
114.467704757736
116.385037247364
118.029505741644
119.522956870864
120.993660446643
122.569257174998
124.372903589039
126.516867521307
129.090278814560
132.145093167242
135.686906911342
139.672892900416
144.015208544336
148.588198496527
153.239017888883
157.802729661365
162.122790142769
166.073648189100
169.577910491342
172.612588453562
175.205259704514
177.424296759356
179.366223429568
181.142325883683
182.867539169939
184.653901588934
186.606811926108
188.818840021975
191.358229009202
194.255913683926
197.497404941771
201.021773154434
204.726043145393
208.473197059387
212.103284540684
215.448545285729
218.353294606569
220.695496831895
222.403123975303
223.460136204278
223.902768904048
223.810409386488
223.294218921847
222.484808455973
221.520888988861
220.541151635950
219.678572757691
219.052722333171
218.757399732930
218.847126768713
219.328421314507
220.158052063927
221.246914769607
222.467755388556
223.665964956747
224.674389280525
225.333141180442
225.511147220230
225.122264929714
224.131322984856
222.551449247735
220.436529104891
217.870789096209
214.956437180855
211.801990278718
208.514306181467
205.193737656240
201.927950144043
198.781461373595
195.783932750590
192.922881293089
190.142990337664
187.350460588301
184.420627499934
181.208575883426
177.563927148437
173.350417324142
168.466638427645
162.860537973882
156.533005945963
149.532631747535
141.946550398200
133.889810937066
125.493709930849
116.894813780278
108.227080993072
99.6166203028417
91.1752786054353
82.9905960757347
75.1149625262094
67.5589755195518
60.2906775750627
53.2392690493336
46.3019606922776
39.3538026002728
32.2617698169235
24.9040099978428
17.1907147474499
9.07946930642816
0.580710983712798
-8.24542381361058
-17.2974211305356
-26.4439737173247
-35.5377503038867
-44.4285571684813
-52.9723571791964
-61.0361643647080
-68.5035819952265
-75.2848141335182
-81.3284655137395
-86.6292320425511
-91.2292202293496
-95.2145913688893
-98.7092852496179
-101.865690915761
-104.850395108414
-107.824033005593
-110.919114461206
-114.223322886880
-117.772869690997
-121.554538686372
-125.512799816592
-129.560054884883
-133.588733858456
-137.482287330686
-141.122393946370
-144.393942830206
-147.192841621937
-149.438698697569
-151.087775687947
-152.140361389761
-152.641572817773
-152.677873685746
-152.370959464134
-151.868734788382
-151.331204538846
-150.910042657779
-150.725982254774
-150.852038203371
-151.307580779539
-152.062154992970
-153.044888520053
-154.156240511019
-155.280237322817
-156.295125547831
-157.080670856426
-157.523220970712
-157.522738719106
-157.004471629185
-155.932151122738
-154.316989427083
-152.220082815746
-149.749092176834
-147.050075154319
-144.294596418338
-141.661824696139
-139.316322074731
-137.385992380980
-135.947130927906
-135.020184281881
-134.574052003941
-134.534940242771
-134.797933559497
-135.240206389268
-135.732820049273
-136.148041354903
-136.363462798370
-136.268443513586
-135.776064680098
-134.836442325083
-133.444590412079
-131.640756633826
-129.505489049667
-127.151765174089
-124.714928083015
-122.339356216660
-120.160530141185
-118.284916794114
-116.774453416442
-115.641175753945
-114.851558666517
-114.336176911279
-114.001321954831
-113.741167510249
-113.448405100899
-113.020769265866
-112.364233499127
-111.397981480026
-110.064633027227
-108.342259082275
-106.251858310611
-103.857885984380
-101.263138480380
-98.5997659053101
-96.0172926375791
-93.6669373796245
-91.6816675564183
-90.1557209182822
-89.1310306567045
-88.5949459835941
-88.4869250583628
-88.7092476083747
-89.1390935915405
-89.6410729184512
-90.0783395590513
-90.3202031879628
-90.2471696703590
-89.7577624826880
-88.7796693226833
-87.2814296588028
-85.2786512851683
-82.8332141844653
-80.0478468234788
-77.0581894470352
-74.0225550647006
-71.1078288428849
-68.4704372849301
-66.2356969249332
-64.4825876307130
-63.2385159033152
-62.4823581929539
-62.1512505490617
-62.1491803681204
-62.3577987336133
-62.6480857260257
-62.8895942214059
-62.9568494986991
-62.7371773910078
-62.1431006200802
-61.1257652677461
-59.6832953105605
-57.8621568536763
-55.7530915593080
-53.4831085734460
-51.2040684730462
-49.0771094938357
-47.2523091070269
-45.8471036399235
-44.9308114629850
-44.5199929608857
-44.5829374339157
-45.0486344534712
-45.8176021957313
-46.7737795423311
-47.7954268721544
-48.7621638361425
-49.5585594785490
-50.0791404351304
-50.2385389805971
-49.9841135456388
-49.3054560870679
-48.2383425887140
-46.8634166561182
-45.2998391964692
-43.6939903350388
-42.2031791591572
-40.9746936874681
-40.1238075223111
-39.7177439561433
-39.7705012334702
-40.2473697396151
-41.0746244384778
-42.1511599537891
-43.3603438656039
-44.5798073049323
-45.6874446271326
-46.5654190633307
-47.1069168924999
-47.2280143656220
-46.8809109721272
-46.0626892520686
-44.8176057876628
-43.2340824695281
-41.4374424175072
-39.5788531296853
-37.8200874441697
-36.3136320309816
-35.1814676577917
-34.4997401360888
-34.2939896668823
-34.5431700180070
-35.1878315770577
-36.1398390307545
-37.2929366117237
-38.5325119085168
-39.7422187849863
-40.8082763298423
-41.6262901192812
-42.1136605027121
-42.2237159787182
-41.9547533549400
-41.3513322988940
-40.4995183440226
-39.5182418387612
-38.5476684182679
-37.7339387955736
-37.2097716970389
-37.0742529721004
-37.3786014973371
-38.1222763351664
-39.2578150183752
-40.7001805232502
-42.3384988499571
-44.0493692854275
-45.7087863572038
-47.1990879313716
-48.4118771314034
-49.2527347077036
-49.6514449507708
-49.5740883748453
-49.0306988260095
-48.0766838235447
-46.8095410693676
-45.3615057617522
-43.8880238485351
-42.5519442475822
-41.5035712570737
-40.8598648009577
-40.6895407767047
-41.0083951550322
-41.7830258285190
-42.9388955337980
-44.3710578436654
-45.9569002284557
-47.5681088495037
-49.0786210757450
-50.3695238949508
-51.3360714639581
-51.8997092620209
-52.0211415565406
-51.7080937906192
-51.0156071551665
-50.0408693822912
-48.9151443406631
-47.7934874155691
-46.8403574155023
-46.2095187933883
-46.0216554662531
-46.3473752854939
-47.2008117303008
-48.5426333287414
-50.2881929353047
-52.3183743392400
-54.4922764935985
-56.6595352185128
-58.6696436250477
-60.3788773999372
-61.6589475530823
-62.4099040681426
-62.5739078205702
-62.1439456987183
-61.1652814338333
-59.7312887003695
-57.9752978574229
-56.0584557122799
-54.1526915917849
-52.4191873594927
-50.9865945307661
-49.9355324560264
-49.2928741746559
-49.0342797526981
-49.0918537840014
-49.3652750901729
-49.7350245828536
-50.0746930080209
-50.2593124708287
-50.1704221254403
-49.7026364475532
-48.7747349632892
-47.3421785429070
-45.4058220568221
-43.0147824942292
-40.2640440888652
-37.2876702265322
-34.2479317461081
-31.3196465444590
-28.6696282229485
-26.4347899641523
-24.7053152516772
-23.5175152146659
-22.8562819051170
-22.6637466378023
-22.8507030825295
-23.3084020954453
-23.9182501795471
-24.5575112374870
-25.1026685869301
-25.4358488208494
-25.4576333091910
-25.1022781047205
-24.3478742673197
-23.2182838110210
-21.7790248938447
-20.1301274471307
-18.3967390619634
-16.7158572082750
-15.2180707685542
-14.0077416532950
-13.1485236872887
-12.6584493918874
-12.5131238338947
-12.6531970639815
-12.9939105150633
-13.4355971540795
-13.8728395740642
-14.2000748264291
-14.3150829156179
-14.1253067450637
-13.5596434507434
-12.5817859077802
-11.1987640862113
-9.46250944749985
-7.46641192275086
-5.33864841149175
-3.23195208727344
-1.30839746913972
0.280789247410587
1.41628170759893
2.02575482504335
2.08906382785322
1.63508087727253
0.734094526843198
-0.511851002529444
-1.97956095191727
-3.53453648333950
-5.03844280025399
-6.35508163559695
-7.35856283413071
-7.94586914851793
-8.05025487826656
-7.64949895268580
-6.76722376125992
-5.46966319351170
-3.85988305161115
-2.06904602923190
-0.242597280062707
1.47972140691080
2.98620609692741
4.21001401473117
5.13525834532743
5.79365786827012
6.25595224125094
6.62046171129019
6.99983695360003
7.50858084460941
8.25456972082819
9.33452684917846
10.8291388585864
12.7941289428175
15.2493124854096
18.1710247503465
21.4907670281094
25.0996356488038
28.8573302187136
32.6046762321515
36.1794523661752
39.4357462270196
42.2640787579689
44.6058945695953
46.4575863175069
47.8649053208186
48.9121111781045
49.7091369199906
50.3781679907280
51.0415887160569
51.8136720629407
52.7952885171707
54.0670680968787
55.6780301636250
57.6331728107060
59.8864503879842
62.3415581746817
64.8583828971800
67.2625350785223
69.3574570157823
70.9407153064273
71.8254162087509
71.8630513402486
70.9604705033121
69.0861950211801
66.2671581053683
62.5799266758127
58.1392565315564
53.0854490801973
47.5728224089525
41.7618904408274
35.8145640294781
29.8877833084132
24.1224637312501
18.6305184632969
13.4849649411542
8.71488778543401
4.30466957861309
0.197547165240669
-3.69580641871681
-7.48291853610238
-11.2696750182984
-15.1391101904683
-19.1359913217904
-23.2615577210317
-27.4767562478310
-31.7098201616240
-35.8659458958105
-39.8383083059069
-43.5184013511775
-46.8029699243874
-49.5978476276294
-51.8231673230672
-53.4233455788954
-54.3789686465464
-54.7145943287162
-54.5000049869955
-53.8462008411541
-52.8974338544961
-51.8194887306613
-50.7838524797827
-49.9479745027270
-49.4350298375496
-49.3197064283645
-49.6244608346180
-50.3248896867355
-51.3594129491831
-52.6393456242731
-54.0578093636317
-55.4972681942022
-56.8359009719221
-57.9540372125857
-58.7431512081766
-59.1182368749688
-59.0299437495337
-58.4717077662541
-57.4808618560737
-56.1354742830666
-54.5480689689793
-52.8560175698825
-51.2073838306624
-49.7420161036107
-48.5719392273686
-47.7677298553853
-47.3541927321724
-47.3132542247360
-47.5904775969875
-48.1037065995457
-48.7533390006219
-49.4320593038038
-50.0314855124793
-50.4466627429761
-50.5827321258846
-50.3660407195343
-49.7562937847667
-48.7544779139339
-47.4046848053857
-45.7911743151462
-44.0322517740202
-42.2709481989937
-40.6606519976581
-39.3448522394130
-38.4352137239956
-37.9956615739288
-38.0369549521565
-38.5201885433227
-39.3653905671398
-40.4630597486863
-41.6872434058783
-42.9072690184179
-43.9955916864084
-44.8332346435261
-45.3174420678626
-45.3734284429162
-44.9662334867089
-44.1075270409620
-42.8563169467163
-41.3151587178486
-39.6227433288542
-37.9424042995378
-36.4450106099175
-35.2858093429880
-34.5796537751051
-34.3824975752202
-34.6836642307854
-35.4067786440128
-36.4146911159848
-37.5162834374653
-38.4750221500772
-39.0177255604191
-38.8413696109883
-37.6188761387015
-35.0083726739574
-30.6686794519665
-24.2774148034900
-15.5454869544964
-4.22571602798342
9.88268386874282
26.9313718908561
47.0207164038545
70.1997938212371
96.4712529114315
125.799322682434
158.114289073697
193.308489621739
231.224860424941
271.642263886686
314.260864433042
358.689889801222
404.441172271731
450.931509254763
497.492721109318
543.384034824479
587.802763210845
629.895011063914
668.770778215232
703.525586715859
733.268797343258
757.158155500040
774.438858440166
784.484644904588
786.837775402883
781.242335444672
767.664144226806
746.294443469021
717.540104418063
682.005029515102
640.465596058122
593.841040251177
543.160092904638
489.526149366990
434.081560521599
377.968700894964
322.286900205429
268.050187688782
216.152981892317
167.346426460879
122.224006173411
81.2152660792470
44.5880207460761
12.4602719864211
-15.1782505583109
-38.4391881093270
-57.5103861372121
-72.6370171218473
-84.1085323221564
-92.2485872034852
-97.4061468813496
-99.9472887794205
-100.246495469855
-98.6758496004413
-95.5935158188221
-91.3363954318847
-86.2200394478724
-80.5430818984662
-74.5912292992905
-68.6384675823633
-62.9453601114287
-57.7548912148435
-53.2862693724876
-49.7256640741314
-47.2127942344220
-45.8265529695046
-45.5763462395784
-46.4031465137338
-48.1887976809712
-50.7697143306242
-53.9523201904677
-57.5286185466597
-61.2893740138044
-65.0326424349056
-68.5692587065954
-71.7306234482677
-74.3817808880698
-76.4358117357342
-77.8628596164443
-78.6913453258418
-79.0031081634147
-78.9244767392504
-78.6137731603217
-78.2442440615640
-77.9820607061599
-77.9631385638346
-78.2757428282187
-78.9536348512166
-79.9791767332606
-81.2927681373384
-82.8054311855294
-84.4118224578790
-86.0003346772627
-87.4585047336545
-88.6764330424409
-89.5535760587374
-90.0106061065182
-90.0016420838190
-89.5214932876802
-88.6074857514563
-87.3378800307235
-85.8271970918753
-84.2174759512592
-82.6642836605468
-81.3169542494768
-80.2962988451723
-79.6772208005215
-79.4821623961162
-79.6850445940944
-80.2210819093026
-80.9984684513713
-81.9099486973095
-82.8423540344037
-83.6823268359673
-84.3195764513141
-84.6523112721090
-84.5975221277283
-84.1028456663745
-83.1546424200179
-81.7807047289644
-80.0490651063583
-78.0635543985461
-75.9552148686590
-73.8682455338788
-71.9406733782357
-70.2840011732217
-68.9686920781915
-68.0193508706855
-67.4177598614719
-67.1096356858096
-67.0131121685967
-67.0286633121660
-67.0488259274050
-66.9653274457050
-66.6741416633011
-66.0823759680768
-65.1192629407274
-63.7480995158148
-61.9741273281463
-59.8464702598887
-57.4548701772205
-54.9224297497410
-52.3950936182861
-50.0269202582442
-47.9602623052663
-46.3047282788702
-45.1225299818460
-44.4242505361680
-44.1726072082980
-44.2900192239889
-44.6683696461870
-45.1806299995301
-45.6922954265971
-46.0698611647065
-46.1866248585516
-45.9297935439528
-45.2116547514147
-43.9818345591837
-42.2350168553522
-40.0120003661047
-37.3957211489655
-34.5041349408001
-31.4804013526760
-28.4790067130857
-25.6467687290331
-23.1021944651737
-20.9202167384050
-19.1264516615222
-17.6998358156061
-16.5807733694681
-15.6826417685765
-14.9040520093772
-14.1384033377921
-13.2789698106148
-12.2218372348075
-10.8717345817978
-9.15316537260078
-7.02316954322858
-4.48002245629437
-1.56568706282366
1.63702876092202
5.01114346599503
8.41513671445773
11.6963787665205
14.7095978243346
17.3376404976804
19.5077408604638
21.1983679285459
22.4369860678477
23.2919770791711
23.8615977783794
24.2620176986298
24.6168185029083
25.0499180581969
25.6806571320161
26.6165944464305
27.9417534819388
29.7041724631490
31.9084298454022
34.5146253540191
37.4418888749443
40.5749144533293
43.7736862617415
46.8876918814044
49.7749293565210
52.3220440233065
54.4589513847331
56.1638729383226
57.4603846652039
58.4102749280342
59.1038123466710
59.6480866193910
60.1562775822973
60.7409861052554
61.5105591241952
62.5635014441137
63.9784085013441
65.8029925444413
68.0473685694906
70.6827366202918
73.6436292405799
76.8324137052571
80.1265284599047
83.3905452253803
86.4941211767136
89.3321624848116
91.8402658746058
94.0011904830406
95.8430549697838
97.4318389454641
98.8601444248582
100.234327874877
101.663165720471
103.250717691349
105.092878381041
107.273476536650
109.856451614957
112.875953273898
116.329192789153
120.174286021937
124.332291520716
128.692555836363
133.121683795559
137.477268803294
141.626436073535
145.465559060385
148.934740673573
152.022758157546
154.763174576025
157.225082406410
159.501230433470
161.695494032277
163.912386638095
166.250623394121
168.799131159347
171.631193535928
174.794953586527
178.303854684343
182.131737276134
186.213503664248
190.449456926664
194.711829816006
198.853690051215
202.722017481187
206.175900853218
209.106286894744
211.450434034963
213.196862685249
214.381915838098
215.081140288669
215.397546611757
215.448711024579
215.356274419929
215.240517732865
215.217775668766
215.394637248884
215.856320787415
216.654092134632
217.797925471138
219.255106138592
220.952289989718
222.780088634913
224.601130901502
226.263421952749
227.619744114885
228.549267144613
228.973890612749
228.864554846812
228.238801712010
227.153385703354
225.693894943521
223.962410294218
222.066304517921
220.111414867820
218.198083862825
216.414516083248
214.825022949070
213.457690865916
212.297547616075
211.286592901611
210.328453126586
209.295688341982
208.039507474325
206.403308920971
204.240801730921
201.435216478109
197.913144450215
193.649376259907
188.664380165023
183.017912490545
176.800270472168
170.121536127719
163.101118222103
155.860891612210
148.521522562122
141.197055816040
133.984502518449
126.951562367611
120.127884252462
113.501810317732
107.021949903062
100.602870594934
94.1343254124358
87.4944888458432
80.5680723033100
73.2663766330822
65.5423689467171
57.3960034760462
48.8706838813544
40.0444689292203
31.0185135956793
21.9046677580972
12.8156195175521
3.86030548902647
-4.85757934625437
-13.2439425468136
-21.2242319163864
-28.7547741332371
-35.8298216934524
-42.4828386139982
-48.7834243806275
-54.8309490193427
-60.7451340682994
-66.6527940897427
-72.6699490194477
-78.8822458560648
-85.3306613247439
-92.0074458183248
-98.8611704862450
-105.806655207777
-112.736666881103
-119.533414629606
-126.077561167803
-132.253174504567
-137.950224265146
-143.069393261457
-147.532313989696
-151.294112412205
-154.352056734782
-156.747449999292
-158.561888086665
-159.909853780500
-160.928566457535
-161.764264237002
-162.554215230373
-163.407723464143
-164.392630183084
-165.531168122123
-166.803622812505
-168.156143955054
-169.510472647507
-170.774348870203
-171.850623992573
-172.643234279069
-173.061089470953
-173.024031626441
-172.473220899978
-171.382384608235
-169.764348450219
-167.671459549888
-165.192043479786
-162.444576528282
-159.569527101783
-156.717336300076
-154.031334351671
-151.628401264047
-149.583962053292
-147.926003256571
-146.637492566391
-145.664029863558
-144.924468898326
-144.322693334115
-143.757666666682
-143.129402442566
-142.342158276949
-141.309556042046
-139.964479413384
-138.270733473434
-136.231036202191
-133.889114716377
-131.326896772725
-128.658143504602
-126.019016569736
-123.554726264911
-121.401487577797
-119.666941714748
-118.415773994328
-117.664803651440
-117.386270721528
-117.515750661248
-117.962371983665
-118.619728026901
-119.374861698557
-120.113211586548
-120.721402369103
-121.093214978052
-121.141374749009
-120.811163101647
-120.089644834120
-119.008069180195
-117.638549691099
-116.086742669967
-114.481430118409
-112.960425708630
-111.652362525090
-110.657630396754
-110.034788423061
-109.796339086215
-109.912457903081
-110.319042667953
-110.927887011148
-111.637711783132
-112.343716572836
-112.943295961153
-113.338814321740
-113.442140951667
-113.184314858386
-112.527301733070
-111.471674834178
-110.057833647699
-108.362631371012
-106.493540682689
-104.580465155098
-102.763228914385
-101.173446855016
-99.9141940889838
-99.0446938180595
-98.5750118216034
-98.4698886745005
-98.6575631680272
-99.0407680219239
-99.5088363011284
-99.9486642637155
-100.251480010244
-100.315935921045
-100.052341051727
-99.3911496407484
-98.2929210029354
-96.7552641723021
-94.8155308157874
-92.5497785052284
-90.0678268059927
-87.5039792420379
-85.0028454561222
-82.7003913828087
-80.7039584550551
-79.0780243376034
-77.8399966283173
-76.9646189058763
-76.3927658370626
-76.0417650408417
-75.8157867957654
-75.6143805246396
-75.3377436986038
-74.8903438848993
-74.1869498800867
-73.1629022452817
-71.7851707652398
-70.0592301919063
-68.0305167348049
-65.7820554042064
-63.4290850670036
-61.1100017691667
-58.9721470471692
-57.1521290482588
-55.7547178297745
-54.8377104110309
-54.4074705476243
-54.4237291006148
-54.8092298481237
-55.4613189843703
-56.2641757150646
-57.0993875912887
-57.8521090699936
-58.4136637501474
-58.6860640891721
-58.5921753481992
-58.0879833423175
-57.1707837958840
-55.8815285883919
-54.3028473326786
-52.5534410293959
-50.7784277757048
-49.1348426370624
-47.7721208279740
-46.8108772738542
-46.3268032150328
-46.3446790079749
-46.8417046694402
-47.7558294502511
-48.9957568606443
-50.4511650149253
-52.0014456498789
-53.5212906345076
-54.8846056662790
-55.9714073256432
-56.6799404696129
-56.9400912182948
-56.7225058241974
-56.0419035448966
-54.9560790984456
-53.5615128223051
-51.9850630274133
-50.3702320316314
-48.8577520974779
-47.5649799100491
-46.5714685227146
-45.9141239114225
-45.5894225295374
-45.5591227897753
-45.7584999241236
-46.1068029582415
-46.5172382406020
-46.9029479418214
-47.1794610755331
-47.2688292465004
-47.1089953393319
-46.6652396942997
-45.9380361005249
-44.9653470807705
-43.8204552554440
-42.6063740452021
-41.4470208724641
-40.4740892466225
-39.8087636078280
-39.5416678047952
-39.7182669479568
-40.3342754316035
-41.3396230900247
-42.6473489995959
-44.1454642170005
-45.7101480160337
-47.2168909614890
-48.5468052873660
-49.5898214117225
-50.2502322613602
-50.4573020903822
-50.1766727413374
-49.4165033127696
-48.2272462497377
-46.6974645640463
-44.9472510607740
-43.1190752782606
-41.3644075112090
-39.8251844989738
-38.6140559154104
-37.8005803293991
-37.4067437876396
-37.4096865885460
-37.7486683513512
-38.3350354692693
-39.0638355251311
-39.8240587357776
-40.5049234433679
-40.9995498569978
-41.2110001234557
-41.0633991434010
-40.5141958757927
-39.5615860165425
-38.2458403560853
-36.6468001069521
-34.8785720278456
-33.0804457950831
-31.4025513474663
-29.9862999576664
-28.9437051057918
-28.3424178758757
-28.2004878781458
-28.4894794351088
-29.1422706994689
-30.0632194425757
-31.1397627810717
-32.2536031419630
-33.2887814968653
-34.1366823656547
-34.7021105215239
-34.9133458438738
-34.7328705916795
-34.1632713055819
-33.2471429987881
-32.0631709647901
-30.7196481638212
-29.3449891980383
-28.0740926697239
-27.0304536073618
-26.3077283274322
-25.9572844117894
-25.9854504715894
-26.3584052329208
-27.0103989940037
-27.8532677259697
-28.7868888273615
-29.7085746759255
-30.5185896414697
-31.1228341215118
-31.4378716080366
-31.4008906379826
-30.9804980638369
-30.1828381544381
-29.0520321553637
-27.6667515802950
-26.1340770403338
-24.5806110192183
-23.1394961709677
-21.9323511238084
-21.0495214094228
-20.5357032402138
-20.3855117593810
-20.5481352402057
-20.9376186646047
-21.4458956540572
-21.9561075510379
-22.3531054925476
-22.5289716673512
-22.3852346967273
-21.8370794259829
-20.8230195724189
-19.3168066652777
-17.3353046719131
-14.9398333106602
-12.2322847358242
-9.34761114683628
-6.44333181384559
-3.68533087314802
-1.22927973396935
0.799154993994539
2.31892798865688
3.29924557390354
3.75761408342978
3.75357551396514
3.37981298502837
2.75144543981780
1.99557562361951
1.24344118077939
0.624570130577707
0.259067618470634
0.246058597061199
0.652057011528150
1.50424870646019
2.78926549314203
4.45541927293782
6.41744139531069
8.56409223164254
10.7700911856329
12.9134927093937
14.8952750575941
16.6537058149690
18.1685844366697
19.4570873803430
20.5659564381212
21.5627321398258
22.5266756142429
23.5409249685390
24.6881327158850
26.0488827718200
27.6983571158462
29.6979342928462
32.0841093841692
34.8598171831776
37.9903708952075
41.4034002431679
44.9926017729725
48.6262557835606
52.1614339215414
55.4632832816075
58.4251249042031
60.9823414170884
63.1158965297072
64.8475008847660
66.2307942542225
67.3404618522809
68.2597893237629
69.0693458144901
69.8404113324476
70.6324926938733
71.4892985136999
72.4296606990189
73.4374936204525
74.4572944773302
75.3964145010992
76.1313077634188
76.5161603363909
76.3945817991618
75.6158019871463
74.0549831656055
71.6326969306197
68.3265008272239
64.1718959728493
59.2557236442161
53.7060935125764
47.6805525671822
41.3532515889141
34.9034629291942
28.5081673389986
22.3375881905852
16.5483282289104
11.2710026114893
6.59624489411408
2.56522191740617
-0.833272154881935
-3.66014014784388
-6.01866617631726
-8.04310935891487
-9.88299977760162
-11.6829226921155
-13.5611577292502
-15.5942440511709
-17.8121785240868
-20.2026380495658
-22.7197508105985
-25.2946483321010
-27.8461518572703
-30.2889466646064
-32.5372908901715
-34.5063031110731
-36.1162615727288
-37.3027855647735
-38.0288027577795
-38.2919371611449
-38.1258288351288
-37.5977989493062
-36.8044224176308
-35.8645835184883
-34.9083037201589
-34.0602319021363
-33.4208430232292
-33.0521446626278
-32.9726043906238
-33.1604552997855
-33.5617951964655
-34.1008878387930
-34.6909567619106
-35.2430538044269
-35.6708048443937
-35.8920852520416
-35.8325735961705
-35.4348108081212
-34.6698438817676
-33.5453675951903
-32.1077816664118
-30.4391834620244
-28.6505406129921
-26.8714058554648
-25.2355705028044
-23.8624369817452
-22.8376150519139
-22.1996462022469
-21.9374138578953
-21.9967143929924
-22.2911161320644
-22.7135645701823
-23.1475300136684
-23.4767006071393
-23.5917452176749
-23.3946019571422
-22.8039404856778
-21.7643039285120
-20.2556602148016
-18.2980230207740
-15.9503713004676
-13.3068369252727
-10.4918603623706
-7.65312491108500
-4.94971651831340
-2.53442158809197
-0.533491907252130
0.969257476909059
1.93909166724667
2.38838527029202
2.36952594259899
1.96461755304894
1.27280519048727
0.398124152254989
-0.558126790202657
-1.50034343265284
-2.34184756393892
-3.01240306749933
-3.46776637500114
-3.69594635579534
-3.71768098393718
-3.58180071052531
-3.35699993912781
-3.12126838938300
-2.94835752376764
-2.88949656272690
-2.95243679664431
-3.08478384863322
-3.16700197947245
-3.01448452685674
-2.38513933400426
-0.990356190025223
1.49165139025029
5.40243945820828
11.0926233554008
18.9133400410007
29.2052390955699
42.2815134316413
58.4074455668023
77.7815630005684
100.520546245400
126.647998868795
156.087989649361
188.664204164094
224.104804230004
262.052968236695
302.080952654647
343.702314705850
386.378387715664
429.520703906783
472.493886866064
514.621504999696
555.195013171744
593.485854204820
628.760930515920
660.300233848527
687.414166066748
709.459682618567
725.857280751552
736.110328650405
739.825029000311
736.728315687870
726.682232755290
709.694772732106
685.928903451325
655.711251984488
619.537604058097
578.069074835012
532.115417902951
482.607135360273
430.560279035548
377.037063525933
323.105201263320
269.800006721485
218.092993714784
168.866822796196
122.892003232382
80.8023536057032
43.0733240383275
10.0100833088644
-18.2524337991187
-41.7399887734283
-60.6230245239821
-75.1959084071432
-85.8510242065454
-93.0462112705055
-97.2679180456842
-98.9980316680498
-98.6915795797258
-96.7656945419904
-93.5954259835411
-89.5127984733360
-84.8077143839250
-79.7289914498192
-74.4834101373130
-69.2337272507705
-64.1007877341100
-59.1734868601194
-54.5232200561282
-50.2157294175500
-46.3171009759899
-42.8953204429549
-40.0194666592188
-37.7572268180706
-36.1695825614782
-35.3010678546419
-35.1674590946082
-35.7467428821071
-36.9776410208415
-38.7645434704764
-40.9854137522433
-43.5014462724801
-46.1684879010383
-48.8478901586602
-51.4131173191477
-53.7520803975849
-55.7701690319899
-57.3980141549388
-58.6013966284663
-59.3875209079784
-59.8054572125581
-59.9421630654965
-59.9154174396889
-59.8637551754783
-59.9324163948237
-60.2548061136858
-60.9328995336869
-62.0234690355196
-63.5344114487279
-65.4295429564496
-67.6376988337954
-70.0634939690324
-72.5982821019648
-75.1291189670477
-77.5437498825461
-79.7329403792005
-81.5950917694506
-83.0463122007914
-84.0325962957129
-84.5382235649197
-84.5884663352880
-84.2478957174588
-83.6149901366122
-82.8128660046998
-81.9756106233913
-81.2301442616813
-80.6766921682483
-80.3741922194824
-80.3353951417272
-80.5309998195965
-80.8985360717573
-81.3525726956952
-81.7948967994636
-82.1232808170945
-82.2373209613130
-82.0423772924684
-81.4554832841966
-80.4152518005004
-78.8925508972794
-76.8973299300379
-74.4803715712407
-71.7306986548989
-68.7688303331433
-65.7362295268263
-62.7812680233219
-60.0418348164432
-57.6273810328831
-55.6062147007996
-54.0017627532058
-52.7964013943974
-51.9393699263725
-51.3564955798567
-50.9601075898771
-50.6569884657680
-50.3530307377740
-49.9562910002182
-49.3826232235163
-48.5658880637253
-47.4691669214447
-46.0916824523351
-44.4698269763163
-42.6739736936417
-40.8029176218535
-38.9759919247122
-37.3204627561905
-35.9526828714292
-34.9573127895693
-34.3728807446280
-34.1883816130376
-34.3489826428873
-34.7663687342673
-35.3310665684142
-35.9252423443119
-36.4332913938478
-36.7477910049586
-36.7722481562947
-36.4256333749509
-35.6513327099473
-34.4267949945698
-32.7684844708686
-30.7311959683600
-28.4040715590779
-25.9049522421796
-23.3726959415365
-20.9554735601463
-18.7938721848303
-17.0020065260269
-15.6531269330703
-14.7738576857393
-14.3461226681674
-14.3136019492224
-14.5907677835240
-15.0733261221117
-15.6477873816967
-16.1979926998024
-16.6096503175219
-16.7769341990680
-16.6130740542483
-16.0615457860300
-15.1033091886080
-13.7590436227583
-12.0873797062341
-10.1794466915854
-8.14947951902875
-6.12101513688570
-4.20881681205096
-2.49999537387537
-1.04101334152872
0.165086560918905
1.15312776067873
1.98666866137145
2.74782961992538
3.52694432174163
4.41427399700998
5.49611226347867
6.85370583449447
8.55988168145137
10.6708555468706
13.2169230401215
16.1969114173922
19.5765145562260
23.2881472374420
27.2324695639724
31.2839451702278
35.3023465240748
39.1503150905225
42.7134283126285
45.9157274918080
48.7256830071716
51.1539325591286
53.2470302949514
55.0789676460360
56.7406891164087
58.3299939253338
59.9451306646642
61.6816556936105
63.6278031617923
65.8551916863342
68.4080221039702
71.2964056552331
74.4956464050650
77.9495322677319
81.5754942636227
85.2713683768847
88.9257160693090
92.4332065476801
95.7117386944117
98.7143795951369
101.432427691804
103.891740405972
106.145966809779
108.268217409477
110.341886956705
112.452619038215
114.683402523026
117.111706468171
119.804466487741
122.808799493030
126.142149466095
129.786948341388
133.690527342909
137.768300561790
141.909371099843
145.985090030737
149.861718072496
153.417459764799
156.560404999513
159.240986180196
161.454971680371
163.238462350024
164.659048785050
165.805682710393
166.778017350494
167.677004325722
168.599379436811
169.635534824143
170.865918769750
172.352388188300
174.127455170273
176.187208610604
178.490075184128
180.959946106948
183.491911981473
185.960441293456
188.231764246161
190.181452314573
191.713420427830
192.773361342876
193.352844119255
193.486028331227
193.242533355367
192.717685183053
192.020614775311
191.262906231484
190.551093668935
189.982678618317
189.641361270673
189.588535463314
189.853887040616
190.430356743310
191.274905775032
192.312599988219
193.441816078002
194.541022531273
195.479789591504
196.135551035637
196.412424152939
196.254758929077
195.650917660524
194.628408539805
193.244211744685
191.573601483524
189.699881554836
187.707281191160
185.677848560913
183.689606532369
181.811145218339
180.091325558403
178.548411573950
177.163387169769
175.878443814427
174.599930431008
173.205519125613
171.555284041999
169.506572827019
166.932188526762
163.738210525649
159.875334896203
155.340747204191
150.172926457855
144.443087417871
138.244710010636
131.682056417133
124.860619940792
117.882381377868
110.844510363402
103.836310169887
96.9313599458596
90.1780914060795
83.5941728845356
77.1660626218106
70.8515753550439
64.5837765579913
58.2768007247896
51.8360049730640
45.1737480088363
38.2270971347396
30.9701318938302
23.4166983602268
15.6159020642152
7.64463138099763
-0.401348366543813
-8.41744865657095
-16.2990834442348
-23.9464099273321
-31.2660129327660
-38.1745281134295
-44.6073162799945
-50.5290349443670
-55.9405533714151
-60.8802177190750
-65.4206909605376
-69.6626864250094
-73.7257852088326
-77.7350257692357
-81.8026559835530
-86.0093280960367
-90.3921821969637
-94.9431585572123
-99.6146583796506
-104.328439358940
-108.986024889429
-113.479758024510
-117.702192060888
-121.551407005457
-124.933404285400
-127.766531046954
-129.990849315449
-131.578923146450
-132.542342398078
-132.932239622189
-132.835394837804
-132.367649792773
-131.665296603996
-130.873236637735
-130.128289236145
-129.540326714745
-129.178366638265
-129.066531248168
-129.188607004049
-129.496943980669
-129.922721902093
-130.386138330960
-130.804643972828
-131.097459959086
-131.187789480402
-131.007387506662
-130.505947453218
-129.661683095305
-128.487641169832
-127.032091861222
-125.374558210907
-123.619283468243
-121.886712847306
-120.301590850808
-118.976438037982
-117.993779822001
-117.394345173834
-117.175432984401
-117.296979228284
-117.690195583472
-118.266244123137
-118.924898472162
-119.562267816343
-120.075586552357
-120.365704483553
-120.341726029596
-119.930633384773
-119.088441348624
-117.807310705338
-116.117099717612
-114.083072250917
-111.800988244423
-109.389143566395
-106.975778429467
-104.681439240663
-102.600243140394
-100.786952778512
-99.2538063631412
-97.9753719173206
-96.8973393934492
-95.9467734267494
-95.0427731119450
-94.1056469689021
-93.0623269956845
-91.8484757059244
-90.4114047462335
-88.7170802493410
-86.7590151190338
-84.5641970281340
-82.1940935841154
-79.7416217721592
-77.3250953626252
-75.0791955919914
-73.1417720950953
-71.6360315611125
-70.6520037658505
-70.2342457258116
-70.3794714281629
-71.0416274803685
-72.1399113530292
-73.5678553856200
-75.2032343248623
-76.9169959960703
-78.5790168579882
-80.0619699495626
-81.2477368056013
-82.0383833831902
-82.3682256672715
-82.2120799423210
-81.5879305330583
-80.5547293109541
-79.2063961835227
-77.6625305049575
-76.0549661845707
-74.5095883469435
-73.1271967292382
-71.9706706207909
-71.0622837790451
-70.3884967890135
-69.9075862106572
-69.5581789062755
-69.2684314142196
-68.9641997883442
-68.5738824006785
-68.0305206613279
-67.2752331769922
-66.2648939525336
-64.9817262797381
-63.4400008186929
-61.6878060158529
-59.8048665893534
-57.8975859098489
-56.0913623906800
-54.5187104892423
-53.3019583303537
-52.5338333980437
-52.2634199127997
-52.4922903981217
-53.1792899356614
-54.2498011034508
-55.6066812672686
-57.1411530843310
-58.7415774694801
-60.2985637919713
-61.7077079691000
-62.8741896889522
-63.7217506254454
-64.2028001957792
-64.3044710820970
-64.0494078216002
-63.4931814039466
-62.7197436660832
-61.8345982357180
-60.9537610379681
-60.1875143880782
-59.6226920703056
-59.3104994530785
-59.2636667234645
-59.4607814974194
-59.8535698829883
-60.3750809368322
-60.9485059441322
-61.4952368336366
-61.9397603985337
-62.2118324921492
-62.2502998322608
-62.0111676357105
-61.4764090415645
-60.6586327265200
-59.6010120877717
-58.3744022033627
-57.0727044203796
-55.8062149108779
-54.6912578250792
-53.8348544531579
-53.3176295791094
-53.1815267101203
-53.4260553179321
-54.0113985339961
-54.8650057754972
-55.8905488689003
-56.9792259289492
-58.0209803819866
-58.9120447316541
-59.5589727559400
-59.8833774008357
-59.8298472629866
-59.3742115939433
-58.5279932829797
-57.3383555054056
-55.8851628627715
-54.2759950136526
-52.6385369374890
-51.1088150600754
-49.8147919986824
-48.8589821968612
-48.3063669988922
-48.1807133014912
-48.4673699856660
-49.1192743810103
-50.0646934090054
-51.2161361473678
-52.4785866978404
-53.7547578976532
-54.9481642764783
-55.9685238641567
-56.7422113967663
-57.2240876266770
-57.4047518934271
-57.3114423031822
-57.0045004535988
-56.5712934362576
-56.1179001822239
-55.7570334387753
-55.5911151233932
-55.6940491522184
-56.0989463309362
-56.7962022397905
-57.7399331934338
-58.8577912488990
-60.0611390777234
-61.2547749325089
-62.3446100293859
-63.2412848405797
-63.8613503897412
-64.1313669496119
-63.9975779131091
-63.4371738958028
-62.4653595112684
-61.1365483445620
-59.5411948007319
-57.7994479413577
-56.0516353811394
-54.4447607359325
-53.1148455594627
-52.1684013858645
-51.6690692644610
-51.6332345439322
-52.0335203388020
-52.8066511007769
-53.8632643554958
-55.0984760899225
-56.4012783187563
-57.6605810342323
-58.7684492930279
-59.6245043409991
-60.1445081264299
-60.2710609891653
-59.9816934873892
-59.2919440054369
-58.2537983540772
-56.9504784247084
-55.4881717422457
-53.9843979336756
-52.5526052354158
-51.2855997673385
-50.2436604819322
-49.4511594343778
-48.8999867025847
-48.5557889730411
-48.3651713748975
-48.2636360300297
-48.1826343870948
-48.0534163137306
-47.8086175262390
-47.3861242241588
-46.7377036766079
-45.8389758229377
-44.6957026236431
-43.3451666897582
-41.8538282962506
-40.3118683743439
-38.8247721541628
-37.5014749210107
-36.4385021420383
-35.7030294924039
-35.3213613103994
-35.2769552404729
-35.5162376308349
-35.9579365097823
-36.5036452384216
-37.0489069993833
-37.4926463048328
-37.7422314243732
-37.7152059859364
-37.3425760265251
-36.5764839696420
-35.3993584287917
-33.8297066345776
-31.9227579130699
-29.7670173660818
-27.4781384964357
-25.1903463401928
-23.0438840921552
-21.1674083780137
-19.6587799299197
-18.5715072585146
-17.9116184719055
-17.6434054529895
-17.6993149507070
-17.9911460729629
-18.4215703278638
-18.8937717921073
-19.3166992156621
-19.6071140617259
-19.6931386112116
-19.5217193997957
-19.0666856622362
-18.3328298236861
-17.3553494736954
-16.1964068666918
-14.9397068431224
-13.6828285217576
-12.5261148535145
-11.5574241240089
-10.8359487162937
-10.3814883199361
-10.1728698977913
-10.1535896279116
-10.2405725766321
-10.3339909421318
-10.3275962604006
-10.1176054185915
-9.60772026337765
-8.71155032202746
-7.35741330374349
-5.49781488382876
-3.11935469230842
-0.247734626499501
3.05246847204954
6.68102748237206
10.5078879859707
14.3827248167536
18.1494593271876
21.6657374531447
24.8232293382689
27.5611803562606
29.8687913016483
31.7787868480291
33.3571419010256
34.6916686667536
35.8806075723647
37.0233839351529
38.2155031247039
39.5459597769897
41.0921697395204
42.9099026734789
45.0222708301609
47.4135531854667
50.0289940451142
52.7784727173023
55.5425568779511
58.1807519240405
60.5431191734698
62.4862282409029
63.8902535456245
64.6706780650280
64.7813115401463
64.2112900471854
62.9801900668254
61.1325066376500
58.7309817773941
55.8499336569206
52.5712970510019
48.9834485294520
45.1783937812363
41.2436451667299
37.2510538903131
33.2476912143165
29.2514152757966
25.2512411758473
21.2117611853793
17.0807929356906
12.8007057863209
8.32400666656579
3.62983108087937
-1.26549812073223
-6.30790479177178
-11.4129737125006
-16.4766418347677
-21.3861296351101
-26.0299822125276
-30.3058147077606
-34.1242511597897
-37.4103390688216
-40.1068480271434
-42.1818449042029
-43.6370914294986
-44.5121344742045
-44.8828937044218
-44.8565531545189
-44.5642233587974
-44.1515798562631
-43.7663668459720
-43.5419859067863
-43.5802879087836
-43.9399104186050
-44.6339384633131
-45.6351618323376
-46.8848904629491
-48.3029316034875
-49.7976950701964
-51.2745102848413
-52.6402166649435
-53.8052516340290
-54.6876874558065
-55.2217813519030
-55.3678824144687
-55.1188491478901
-54.5019521267597
-53.5777102662686
-52.4361898656334
-51.1900915341898
-49.9630540548575
-48.8725228702415
-48.0111771589887
-47.4342771062747
-47.1569272514390
-47.1589893846708
-47.3931594836655
-47.7938401534544
-48.2859868610644
-48.7921217167686
-49.2355618125520
-49.5412096897427
-49.6387676037575
-49.4711610302424
-49.0046310161895
-48.2350438031143
-47.1893049977298
-45.9239080708244
-44.5214754002744
-43.0842231544122
-41.7226972520987
-40.5395198781438
-39.6118372609644
-38.9791213041178
-38.6404230809821
-38.5595740588085
-38.6743042256714
-38.9066766394146
-39.1736165610394
-39.3955752604383
-39.5009297834647
-39.4266213460811
-39.1197707913432
-38.5441443027920
-37.6891224599880
-36.5757139109896
-35.2573463362798
-33.8167045687718
-32.3602860826540
-31.0109553630188
-29.8969021070832
-29.1357323884839
-28.8168382648552
-28.9885773418851
-29.6537016067127
-30.7709786189380
-32.2597844003551
-34.0066929817098
-35.8735472064207
-37.7042671210755
-39.3271497786407
-40.5537965707795
-41.1807537794509
-40.9977241058540
-39.7985907531488
-37.3891000301468
-33.5898250332770
-28.2366500416269
-21.1802354485044
-12.2840440602801
-1.41934771858168
11.5433525825157
26.7427995585604
44.3285406263732
64.4518170751971
87.2483939834007
112.818902735509
141.210184611011
172.398449131166
206.275373954553
242.639320910522
281.191638961728
321.534393798141
363.167158965914
405.486274593626
447.791756311867
489.302710041486
529.178431681347
566.542509027939
600.509302086448
630.214933097125
654.855251682253
673.728005221144
686.270580872401
692.085538154915
690.952403227977
682.829017174488
667.845952816872
646.296117581863
618.621969334054
585.402558173428
547.338705367261
505.230945519548
459.948191445080
412.392568029616
363.467211953653
314.048679893247
264.962946082767
216.965357474947
170.725853561219
126.821022961595
85.7339353310477
47.8590460660698
13.5064190235536
-17.0979101244366
-43.8136336159911
-66.5870125243675
-85.4502005872733
-100.518938183008
-111.986335967546
-120.110435888101
-125.197940203870
-127.590608895635
-127.657828495398
-125.791973819197
-122.401381561736
-117.899679976315
-112.693438449589
-107.170191817836
-101.687184958966
-96.5589820899244
-92.0424224251543
-88.3217232415675
-85.4999498129525
-83.6008524596505
-82.5797484208407
-82.3392976511209
-82.7469640494519
-83.6521104081022
-84.8999903400468
-86.3401867628804
-87.8307458856664
-89.2429822695231
-90.4699108700945
-91.4352835394481
-92.0989581692928
-92.4586716471371
-92.5500495197534
-92.4441350600101
-92.2403302864612
-92.0535240419523
-91.9959499732981
-92.1578732585997
-92.5938367433154
-93.3182698849906
-94.3085810579114
-95.5118857450036
-96.8534926759514
-98.2463939584667
-99.5997032157356
-100.823807173187
-101.833343063182
-102.552449818447
-102.924467558073
-102.922086278014
-102.552414414208
-101.856134682545
-100.903354393387
-99.7878766217469
-98.6195947599330
-97.5132905841172
-96.5729243300295
-95.8748925880785
-95.4570250294398
-95.3170157967740
-95.4179618682401
-95.6968129782098
-96.0740607689563
-96.4642344895683
-96.7848292983245
-96.9605780382669
-96.9238544420877
-96.6166286103072
-95.9975482635933
-95.0508982125258
-93.7921530841126
-92.2689045707931
-90.5583686645695
-88.7618075001108
-86.9956257452579
-85.3785300316172
-84.0144613618904
-82.9748611202468
-82.2875692617106
-81.9365897711382
-81.8699102579494
-82.0099758728489
-82.2642734703213
-82.5355707039037
-82.7301037391882
-82.7614271011750
-82.5508471708654
-82.0294500753013
-81.1455518891314
-79.8747258943364
-78.2261169371466
-76.2426929280028
-73.9973763025011
-71.5869699011186
-69.1244371190569
-66.7289418884222
-64.5124707064200
-62.5644427803356
-60.9394553076986
-59.6525575590863
-58.6819776211243
-57.9765125968662
-57.4652405250638
-57.0677814393739
-56.7025967735018
-56.2912310977982
-55.7598234698012
-55.0424893644857
-54.0890934018009
-52.8741451816478
-51.4020074042114
-49.7074836258892
-47.8534137443218
-45.9261226434690
-44.0283080281909
-42.2678070397436
-40.7413849782950
-39.5173678392437
-38.6244361608548
-38.0504796135281
-37.7489747052685
-37.6481682885977
-37.6607767811379
-37.6934989130240
-37.6544010996199
-37.4563029250558
-37.0180255689572
-36.2684613273439
-35.1554804255938
-33.6555769959973
-31.7792453273080
-29.5713712505786
-27.1084358040078
-24.4936771232416
-21.8497483203831
-19.3067353540309
-16.9847639188305
-14.9757921121044
-13.3320389194437
-12.0643844247270
-11.1478368662062
-10.5293656922870
-10.1360081223769
-9.88314582083450
-9.68200723659561
-9.44468647391655
-9.08719152625035
-8.53431749157528
-7.72865858197104
-6.64014594468914
-5.27086925939363
-3.65445556128166
-1.85234045873388
0.0515791564945775
1.95802088954458
3.76260768162980
5.37051886455189
6.71274747507954
7.75781624226627
8.51489558092922
9.02933212323341
9.37413903680448
9.64009239169213
9.92589132280140
10.3302529924626
10.9475804521528
11.8658173664773
13.1622750209763
14.8953612522745
17.0953255649031
19.7583571113341
22.8451004250517
26.2825669109231
29.9689316338091
33.7815919544434
37.5896687529485
41.2712570886822
44.7315040889210
47.9145945106446
50.8060614417556
53.4279005993033
55.8308670842745
58.0857854920765
60.2741203028213
62.4796520322747
64.7837064121443
67.2629534186487
69.9852879021990
73.0014749095744
76.3360434080346
79.9822363119440
83.9017082307029
88.0270823622791
92.2665962444196
96.5115531430848
100.647884160572
104.571850861719
108.205952598386
111.508693078902
114.475144371777
117.130987356256
119.524921623923
121.722021259862
123.797900815118
125.833458164568
127.910866445684
130.110489207229
132.506034647150
135.155891041041
138.092985953246
141.317728678778
144.796088492980
148.462088522894
152.223292284592
155.968338105626
159.577381160144
162.937069813384
165.957847479998
168.586801266566
170.810898289973
172.651724908718
174.156448284602
175.388216647401
176.416929429009
177.311668056646
178.136806513624
178.951464758082
179.808262881771
180.747964228909
181.791739487439
182.935318405686
184.146914744891
185.368607293882
186.520919150018
187.510857421179
188.243978909948
188.639897879156
188.647261723992
188.252534036339
187.480266785424
186.387190735427
185.053417530380
183.572268710032
182.039828904575
180.546635858499
179.173547721910
177.990443004023
177.053274918498
176.396752379136
176.025478346219
175.908494423609
175.978907614890
176.137317359068
176.257770137836
176.196214541996
175.802804804286
174.938786208044
173.494478060725
171.401661394571
168.636714659022
165.216510234186
161.190565192148
156.630846000806
151.620407056746
146.244237330129
140.585277832006
134.723697246061
128.733638372185
122.674730668049
116.582541564535
110.463721595526
104.296949432432
98.0370609574210
91.6198738430636
84.9675698672194
77.9972805975712
70.6349590247993
62.8314227866882
54.5737662168516
45.8880281370551
36.8345484196780
27.5000845243245
17.9894521328114
8.41752148470111
-1.09768189501681
-10.4397408518478
-19.4970980251394
-28.1677783960535
-36.3675414258913
-44.0390238398689
-51.1577116013114
-57.7335596439401
-63.8096653363254
-69.4589758245962
-74.7784006419760
-79.8783522497760
-84.8667856110814
-89.8314753075931
-94.8275727955860
-99.8743418807429
-104.958990030338
-110.043467865491
-115.072319659997
-119.981104397536
-124.703644088465
-129.176134708149
-133.339284774700
-137.142366981542
-140.550643867441
-143.552461400425
-146.161869772154
-148.417297746085
-150.379197360745
-152.127335559122
-153.755905611433
-155.364194594104
-157.042292387292
-158.855409592138
-160.833150329509
-162.967363946961
-165.216928937068
-167.515921496277
-169.783249981034
-171.932755259301
-173.881558722631
-175.554144431716
-176.882962725351
-177.810494452539
-178.296378438489
-178.326900043570
-177.921521495258
-177.134467119516
-176.052282464923
-174.788212857207
-173.473143592213
-172.241875011922
-171.214907366983
-170.480333935167
-170.082535678677
-170.020655049607
-170.254782322174
-170.716146770884
-171.318534207878
-171.968772895236
-172.574063368474
-173.045027615788
-173.296349618638
-173.249606946314
-172.841145673696
-172.031913919009
-170.813695787486
-169.210114799685
-167.274559094770
-165.086859954755
-162.748225362229
-160.371975108389
-158.068570339611
-155.928208372718
-154.007900446993
-152.327362635545
-150.872278643559
-149.601177665480
-148.453945981758
-147.361133295745
-146.252003044201
-145.059000579938
-143.719302305604
-142.177678297741
-140.393699598239
-138.350623991560
-136.060763829176
-133.565577066366
-130.932152169185
-128.247635093631
-125.611410431336
-123.123554018405
-120.869275490184
-118.903313525308
-117.240934473717
-115.859004046929
-114.704458278330
-113.704891891386
-112.778540765797
-111.843479974418
-110.824720956466
-109.656948587964
-108.284014862368
-106.660342497123
-104.757449791936
-102.572436812495
-100.133198189441
-97.4989476268680
-94.7574542318817
-92.0197154302933
-89.4112822657602
-87.0586752064510
-85.0712642357623
-83.5236914301873
-82.4457446803757
-81.8223655876429
-81.6009264753270
-81.7012266368238
-82.0256675996563
-82.4690153842404
-82.9267611962142
-83.3005460131472
-83.5011669950636
-83.4525407467035
-83.0989283132995
-82.4129419491643
-81.4000576029197
-80.0985158615424
-78.5761276036449
-76.9252178398586
-75.2553646189158
-73.6819654307982
-72.3099540659720
-71.2171103174864
-70.4439505746778
-69.9927681836415
-69.8325715314574
-69.9059239555929
-70.1365623728156
-70.4379430166114
-70.7214210027778
-70.9020076294808
-70.9018524681334
-70.6544260447746
-70.1113070299092
-69.2492281871942
-68.0738316491522
-66.6195292919619
-64.9470012716606
-63.1395356120256
-61.2979427656322
-59.5317964000958
-57.9452507462712
-56.6206575351199
-55.6068962193191
-54.9162997761662
-54.5283944010495
-54.3968767587063
-54.4582443025623
-54.6414840237880
-54.8763872124612
-55.0974427249794
-55.2440529114109
-55.2620312886564
-55.1096520901524
-54.7654880082272
-54.2330753160551
-53.5409444027650
-52.7398140657365
-51.8987909360951
-51.1004362140581
-50.4321309105822
-49.9720144378657
-49.7732578020042
-49.8537296828253
-50.1943070668110
-50.7437008227954
-51.4268110375191
-52.1553756765055
-52.8394198538503
-53.3961084215154
-53.7533021192417
-53.8496073444381
-53.6362532016627
-53.0833992179424
-52.1873743878769
-50.9742978864911
-49.4997057182545
-47.8460349676344
-46.1184781718900
-44.4379134263155
-42.9287940934252
-41.7019145661260
-40.8370011689997
-40.3722979520133
-40.3041165214457
-40.5936228887617
-41.1765010088131
-41.9729089293907
-42.8964032409096
-43.8601358311737
-44.7792967409460
-45.5718261834733
-46.1618254847950
-46.4877483997058
-46.5120209740346
-46.2272144756014
-45.6574891343013
-44.8568874057093
-43.9056617273453
-42.9039071721715
-41.9602394960190
-41.1750480877288
-40.6232284872117
-40.3438848948938
-40.3398660009757
-40.5834324346256
-41.0232795168641
-41.5919117483112
-42.2141815284220
-42.8153690277547
-43.3257671011086
-43.6819555286311
-43.8288561253110
-43.7253930247570
-43.3515656784342
-42.7130963863363
-41.8425597918651
-40.7979038700692
-39.6589583469678
-38.5212710718679
-37.4854331811756
-36.6414905681210
-36.0525281994696
-35.7438522913421
-35.7010514600157
-35.8753559243865
-36.1928409018376
-36.5651432248418
-36.9002414904972
-37.1110694696701
-37.1197119753221
-36.8579030646468
-36.2683013584876
-35.3102443913417
-33.9681750946621
-32.2580803801022
-30.2299507084432
-27.9667206711543
-25.5798196489590
-23.2009019318622
-20.9690773585348
-19.0137647468492
-17.4368444283934
-16.3004117096871
-15.6235033000917
-15.3859870278902
-15.5361421860400
-15.9999363897905
-16.6907575186076
-17.5174670156891
-18.3887449982890
-19.2148518490463
-19.9114500311107
-20.4083956222477
-20.6603314287544
-20.6536205288907
-20.4076291430018
-19.9716276803866
-19.4190455924121
-18.8398087130248
-18.3297435712978
-17.9760988228291
-17.8419646683660
-17.9553770364187
-18.3066644472630
-18.8529233603051
-19.5264978932936
-20.2453355708550
-20.9236895678732
-21.4806000546411
-21.8438970163528
-21.9510601102592
-21.7516669584332
-21.2141497994503
-20.3336749119976
-19.1360659373686
-17.6766353556957
-16.0359724749292
-14.3141863619150
-12.6233940890734
-11.0768819384616
-9.77413803724378
-8.78523970281832
-8.14114816940822
-7.83328987909142
-7.81993378069183
-8.03501876863362
-8.39740963752523
-8.81987966514670
-9.21600599795143
-9.50352316824266
-9.60590236020967
-9.45620327972942
-9.00475519713567
-8.22714217049754
-7.12803166285975
-5.74044179548450
-4.12284912322512
-2.35558700268954
-0.535798388016432
1.23137147559638
2.84656812065383
4.23180351314139
5.34163685271074
6.16629164047565
6.72799825153254
7.07397907175838
7.26788188460211
7.38006978072589
7.47863183011576
7.62404912357566
7.86745260483883
8.24832722519969
8.78893904567867
9.48868207803873
10.3229566483994
11.2464688969371
12.1978445199170
13.1038824383660
13.8844091869835
14.4608189250215
14.7701401551233
14.7805336499600
14.5004021819763
13.9773589466884
13.2898060796442
12.5357147511894
11.8211427936736
11.2497176481362
10.9150178543724
10.8977002042883
11.2659921735961
12.0745208848941
13.3581797344321
15.1238273775593
17.3448919818533
19.9606686670433
22.8792938806792
25.9834638691046
29.1391627661108
32.2085988512522
35.0670825747963
37.6196447129231
39.8116539512869
41.6312493767438
43.1059557704914
44.2965135015841
45.2884898211062
46.1815147208614
47.0783429018773
48.0771279413282
49.2672667321981
50.7249961040622
52.5055704940904
54.6341910064077
57.1002653854458
59.8563093828164
62.8198138332605
65.8769258099970
68.8886726938642
71.7019854459629
74.1665581821065
76.1535083455270
77.5685884959969
78.3562101965503
78.4963157895498
77.9978246454068
76.8904959589833
75.2162668679022
73.0226083035304
70.3603944538138
67.2850071484985
63.8557422589098
60.1305580563528
56.1589765401272
51.9775955313629
47.6090548292846
43.0626947198191
38.3357898244939
33.4161053841177
28.2882803080496
22.9455449406951
17.4031573429119
11.7064269492771
5.92973272740687
0.169205100133908
-5.46649597120983
-10.8653379540441
-15.9206447367910
-20.5382778429821
-24.6408816151700
-28.1699453057902
-31.0888124991753
-33.3882943252419
-35.0921994005737
-36.2590504919637
-36.9794178247062
-37.3705661555287
-37.5697194983830
-37.7256095517280
-37.9862239389302
-38.4817209398470
-39.3065085147144
-40.5077762866004
-42.0843218415605
-43.9933019549376
-46.1603393467095
-48.4906528373108
-50.8805154560823
-53.2270421293232
-55.4337203024853
-57.4122386256857
-59.0849335731555
-60.3911390128995
-61.2954806961961
-61.7935473746359
-61.9129673025582
-61.7111134702749
-61.2711011133226
-60.6960078796732
-60.0992247366649
-59.5896853476209
-59.2552831765653
-59.1508364543723
-59.2941881197461
-59.6689285414376
-60.2304390230553
-60.9136806762570
-61.6422993322304
-62.3372196530186
-62.9219358096197
-63.3244552803679
-63.4799715331421
-63.3375867648619
-62.8688627079914
-62.0736990074268
-60.9823049094627
-59.6544551608067
-58.1763981435844
-56.6544117742749
-55.2032332207369
-53.9291896004930
-52.9126760043294
-52.1970572091773
-51.7868919705208
-51.6526515163969
-51.7380834348944
-51.9689263166882
-52.2625407927644
-52.5362341964545
-52.7119426188065
-52.7183745986080
-52.4947569452271
-51.9983628316368
-51.2129203580129
-50.1535842508062
-48.8673769874427
-47.4304926009250
-45.9435780624841
-44.5245296123367
-43.2969274601508
-42.3738965393683
-41.8419931384417
-41.7515705261488
-42.1156902686228
-42.9139649107647
-44.0967706824334
-45.5887001737339
-47.2922571930406
-49.0912005810358
-50.8516606039327
-52.4214486157704
-53.6311057581784
-54.2989316292940
-54.2374535057139
-53.2576953442270
-51.1711036776562
-47.7908349672174
-42.9327355915664
-36.4147091181548
-28.0524498366606
-17.6510539255282
-4.99659504314446
10.1449941966609
28.0174574231125
48.8546896017511
72.8579645683835
100.173819403443
130.874224795020
164.940470543418
202.251790403042
242.577660804948
285.571026162767
330.761938386736
377.555665738670
425.239633523967
472.999218861415
519.939504233907
565.110425927913
607.534625585152
646.239726904301
680.296707534367
708.861512501853
731.212829627463
746.780338938203
755.162367361615
756.134362396346
749.649657102128
735.834489113102
714.980118938472
687.533876456170
654.087717445092
615.360316418475
572.170800650934
525.407543366683
475.997110947901
424.875298002108
372.959968878815
321.126231213044
270.186008520563
220.874822290645
173.846682927620
129.673322910730
88.8417144946516
51.7472868117861
18.6852175601790
-10.1565916770257
-34.7009869750441
-54.9806268890322
-71.1314135422162
-83.3796484546496
-92.0251747874787
-97.4256472645302
-99.9852625192521
-100.145642222969
-98.3746753487596
-95.1526623396978
-90.9576643296755
-86.2511271514510
-81.4631476347397
-76.9757063114036
-73.1037011086639
-70.0781270451041
-68.0380193808805
-67.0338007403146
-67.0388998862083
-67.9652571342186
-69.6806376256376
-72.0261814495081
-74.8309482386248
-77.9209107016779
-81.1241610251983
-84.2775922878706
-87.2380926011469
-89.8951149596076
-92.1792473162806
-94.0651890089821
-95.5707775033806
-96.7531391923830
-97.7014237795993
-98.5245805060189
-99.3336571310986
-100.222652040451
-101.255338876489
-102.461903522792
-103.842563792935
-105.373556149215
-107.013903175521
-108.712872731128
-110.416146303160
-112.068105063254
-113.611270514906
-114.987939284932
-116.147286345724
-117.054935310370
-117.699570900878
-118.094674598596
-118.276799057382
-118.302096419037
-118.241360377698
-118.171801247129
-118.164222100625
-118.268758336339
-118.505599220723
-118.864343477474
-119.310074605897
-119.791814543108
-120.250736776135
-120.627298092859
-120.865888244077
-120.915652825590
-120.729152782908
-120.263392941842
-119.485763233496
-118.381919673723
-116.960856079388
-115.255993561690
-113.323800018933
-111.240817438370
-109.098598637080
-106.994885533527
-105.019957729384
-103.241391201259
-101.694106654882
-100.379665796982
-99.2723602237007
-98.3272653252335
-97.4879263049407
-96.6934327123254
-95.8838264646410
-95.0021801943132
-93.9944315570321
-92.8115024577743
-91.4162352083834
-89.7916303814349
-87.9454720803756
-85.9105617247313
-83.7424903371759
-81.5161358827201
-79.3201053204339
-77.2468453982260
-75.3778975048162
-73.7688432944462
-72.4407465218457
-71.3807985043372
-70.5492813323997
-69.8883901200293
-69.3305563756861
-68.8057870422852
-68.2471059043147
-67.5927022607632
-66.7858032462988
-65.7764591260485
-64.5276388743741
-63.0224416122505
-61.2681957745128
-59.2973005183179
-57.1663869258381
-54.9535767147278
-52.7522652388991
-50.6600204702194
-48.7631943557952
-47.1215278821866
-45.7587131160076
-44.6617247361093
-43.7866955568099
-43.0673434541070
-42.4240432705566
-41.7732026481589
-41.0353737738733
-40.1397127081813
-39.0253039256472
-37.6437777328826
-35.9660396633007
-33.9897731181824
-31.7426220554991
-29.2802385355772
-26.6816371156200
-24.0438205841358
-21.4756079109630
-19.0884094213889
-16.9820191627339
-15.2283884731611
-13.8605625076491
-12.8711821911133
-12.2185537393582
-11.8356799617241
-11.6394909607446
-11.5392676457072
-11.4429669803134
-11.2603054723160
-10.9040712671195
-10.2937324339313
-9.36338111495492
-8.07089612078110
-6.40415052104967
-4.38342070653212
-2.06060690683230
0.484970727302141
3.15461780575230
5.84259925955311
8.45230060532956
10.9121998683054
13.1854417083781
15.2702291960913
17.1938156786778
19.0045891175768
20.7641401051040
22.5390551269270
24.3933033569676
26.3834155273414
28.5564541353122
30.9472989772248
33.5731441047555
36.4284289126772
39.4842179586864
42.6913982592943
45.9846676191970
49.2862022193968
52.5105217289749
55.5732433033180
58.4043494631588
60.9617440449242
63.2387842380531
65.2633873821250
67.0916148615344
68.7997336601462
70.4760669508061
72.2120582155629
74.0933884027533
76.1938975362034
78.5732382428375
81.2751344023196
84.3233378812972
87.7169849981924
91.4284243978339
95.4035849017457
99.5637597437956
103.809160360118
108.025570171356
112.095542556888
115.914031258374
119.404337837898
122.528151038551
125.286913568453
127.716797885025
129.880748566891
131.859149445694
133.739901984982
135.609940813281
137.550506361243
139.635605459091
141.929540825413
144.480739165490
147.314471408929
150.428659091468
153.793522494114
157.353466281390
161.030458595236
164.729929402331
168.350958117139
171.800587522798
175.008122546940
177.933801423825
180.569678694969
182.935036748634
185.069449267767
187.024578331301
188.855320225240
190.612796709752
192.341911507840
194.082472658314
195.868846664454
197.724751189299
199.655893006265
201.645265580612
203.652410056144
205.615266567881
207.453544875708
209.073986642822
210.379669695612
211.284782577214
211.731275932720
211.700045150037
211.212400011631
210.323763014874
209.113883098212
207.676228336498
206.108072803854
204.503216889423
202.948464321796
201.521710397332
200.287268358441
199.287324357199
198.534131229915
198.007515850492
197.657008308396
197.405579463338
197.154216205351
196.788760911142
196.190761524224
195.252346935592
193.891166199115
192.059187056125
189.742436589639
186.954077677035
183.725360047626
180.097583865379
176.115822401608
171.824330567664
167.264201515830
162.472806159939
157.481858334495
152.311976231680
146.966757292444
141.430724992071
135.671113509686
129.640735914126
123.281104162265
116.527592992504
109.318960695627
101.611146586457
93.3908175753866
84.6823600565061
75.5459012880673
66.0691187840679
56.3569729960544
46.5219443151078
36.6761241312849
26.9263597051482
17.3729188827360
8.10946050517288
-0.780190231645495
-9.23020982601695
-17.2018015044131
-24.6881136695708
-31.7145128633556
-38.3362113489975
-44.6341731634782
-50.7085313503827
-56.6675646953839
-62.6114007297006
-68.6144150683776
-74.7137329341855
-80.9077557196350
-87.1619589720403
-93.4169414879458
-99.5964586473593
-105.615439816019
-111.386987273664
-116.826415933735
-121.853102721732
-126.394396142139
-130.393886024410
-133.820577158496
-136.674386155357
-138.987426566366
-140.822676566361
-142.270421608786
-143.441509740661
-144.455722715043
-145.424994877596
-146.435935713541
-147.538745801325
-148.745792264945
-150.037531251788
-151.371678122922
-152.692845792195
-153.941217192370
-155.058923316816
-155.992924343172
-156.695385678272
-157.125425222475
-157.254746416636
-157.074635159484
-156.600386449974
-155.872248336032
-154.953561624247
-153.926330890637
-152.884132952038
-151.921488819100
-151.119394808298
-150.530795593291
-150.172591582975
-150.027185713146
-150.050526585271
-150.181859964856
-150.352767120067
-150.494693151759
-150.543685586871
-150.441540589382
-150.135508091792
-149.580853003441
-148.747705262686
-147.628302907366
-146.240366714632
-144.626601438017
-142.852257127607
-141.001568290445
-139.172527966027
-137.467804009310
-135.980213503891
-134.776370162166
-133.885885193533
-133.300191437705
-132.978851109561
-132.858666422032
-132.862702606519
-132.908605070573
-132.915477006076
-132.807802968532
-132.516918181879
-131.983691663462
-131.164595883098
-130.038267743263
-128.608990727962
-126.907333381167
-124.989421323761
-122.934396892816
-120.838312950393
-118.802804329170
-116.919024619098
-115.251619167870
-113.829348813126
-112.645089770755
-111.662541190890
-110.825336238709
-110.065892218148
-109.313031178071
-108.497767939442
-107.556640725864
-106.433414113407
-105.082302569667
-103.474628888808
-101.605845141858
-99.4984278523539
-97.2003603345781
-94.7817935077717
-92.3311085190349
-89.9492169278396
-87.7396617784541
-85.7937698586572
-84.1751042619741
-82.9102396122294
-81.9890372133854
-81.3714800085125
-80.9963053491638
-80.7892715880001
-80.6710676706212
-80.5640346651435
-80.3957490103969
-80.0996639805225
-79.6165528803717
-78.8996718298787
-77.9216612090910
-76.6793589642437
-75.1954506937316
-73.5179688709797
-71.7181146813715
-69.8854143025010
-68.1181405505773
-66.5083276642483
-65.1252992694200
-64.0047383422405
-63.1473965611274
-62.5255228275093
-62.0922388083524
-61.7905190256200
-61.5604242440262
-61.3435941071945
-61.0843141754395
-60.7287159287809
-60.2262196352704
-59.5356253570790
-58.6329123232087
-57.5162164894825
-56.2072157087837
-54.7507248873789
-53.2131389611325
-51.6781724935948
-50.2372165015587
-48.9738364307958
-47.9474183938144
-47.1835012002821
-46.6738243193891
-46.3827857165424
-46.2555632879503
-46.2260170252016
-46.2242293975633
-46.1823119868965
-46.0367090809307
-45.7284543551309
-45.2061398159661
-44.4338456666639
-43.4000066760937
-42.1219097695775
-40.6450811565871
-39.0398619263642
-37.3966873922967
-35.8197938617571
-34.4175672465409
-33.2884662592283
-32.5057453682917
-32.1071744778614
-32.0929848190023
-32.4301199062812
-33.0592324154159
-33.9025374862446
-34.8719061982708
-35.8760076703174
-36.8249216179863
-37.6327241421980
-38.2215592319282
-38.5296335762831
-38.5204741187394
-38.1889954184307
-37.5633452108424
-36.7039579684842
-35.7002267917488
-34.6633476159019
-33.7134604855684
-32.9617236927784
-32.4923688695112
-32.3513097914184
-32.5442157376988
-33.0420128183157
-33.7899524125816
-34.7173571902951
-35.7462307704240
-36.7974045158362
-37.7937740450681
-38.6621831027334
-39.3374590511868
-39.7701843040413
-39.9346391959128
-39.8322809032469
-39.4904052011767
-38.9585104394279
-38.3040186674117
-37.6069871257360
-36.9517452321823
-36.4143451573857
-36.0491071269329
-35.8799374166877
-35.8989728679107
-36.0710214020427
-36.3413358278121
-36.6448496099683
-36.9148905900912
-37.0891120719228
-37.1114520344802
-36.9318719928492
-36.5082403775142
-35.8126495093553
-34.8389275676880
-33.6069041394243
-32.1630188324934
-30.5790054857868
-28.9487823850482
-27.3818690120819
-25.9914737469825
-24.8779967779738
-24.1132529496892
-23.7319352315565
-23.7321130367073
-24.0811752046943
-24.7231390761042
-25.5859866602492
-26.5888336625513
-27.6477859990646
-28.6793475523115
-29.6026642432277
-30.3441783294966
-30.8460909444809
-31.0749506598181
-31.0260157161493
-30.7233713606191
-30.2181505488176
-29.5853890154385
-28.9177071106202
-28.3136755906573
-27.8614699684932
-27.6231400391103
-27.6261487359168
-27.8642283225134
-28.3042966960768
-28.8951867298271
-29.5759069216045
-30.2824893345271
-30.9524042897901
-31.5258930442561
-31.9459228194996
-32.1608328557039
-32.1317546709830
-31.8415561044373
-31.3004018702683
-30.5465516150454
-29.6439504711559
-28.6779252135157
-27.7486103143623
-26.9601529035068
-26.4050155196649
-26.1477072472225
-26.2152879324631
-26.5982083145548
-27.2585679766347
-28.1403587127916
-29.1782786876924
-30.3042112605107
-31.4510810215313
-32.5538217827182
-33.5488553906420
-34.3757465911470
-34.9833007701566
-35.3377363462671
-35.4289102687180
-35.2730529239199
-34.9124288184337
-34.4123564755249
-33.8553746151539
-33.3314890055059
-32.9242597088462
-32.6962605583302
-32.6799745897815
-32.8771081993857
-33.2637544292910
-33.7969855528496
-34.4206797837825
-35.0703171787062
-35.6764612298810
-36.1668826750295
-36.4690941046145
-36.5163591823971
-36.2576445343376
-35.6673115315398
-34.7500683227579
-33.5408075465242
-32.1014454338502
-30.5163707231190
-28.8862102182485
-27.3172963103008
-25.9054243465707
-24.7186275799012
-23.7871459277957
-23.1041441301460
-22.6339489616835
-22.3224757954372
-22.1063880707478
-21.9197640050270
-21.6981575948942
-21.3805608221412
-20.9110363782319
-20.2428382169819
-19.3456697576019
-18.2126127486724
-16.8630879713704
-15.3419419193132
-13.7166572528054
-12.0734593462250
-10.5112019616372
-9.13079485349565
-8.01954366023871
-7.23476320250639
-6.79404742995605
-6.67570731381972
-6.82634324363474
-7.17046989074808
-7.61968190944937
-8.08086293426861
-8.46232917513567
-8.67680723801629
-8.64295767403017
-8.28941944936045
-7.56265888376182
-6.43487580542342
-4.90784120045138
-3.01250482142238
-0.806488222854703
1.62932608190926
4.19612225075470
6.78709982796163
9.30281373197102
11.6673558701398
13.8384202023806
15.8083011281500
17.5986329471419
19.2533102917754
20.8315358571032
22.4008337830434
24.0306189997427
25.7879798398569
27.7354000104507
29.9270241649272
32.4013840339547
35.1735688290550
38.2310070573472
41.5334077894365
45.0151514297487
48.5889354332162
52.1509328501361
55.5894579146184
58.7982296790254
61.6906834745550
64.2092090574831
66.3264481046307
68.0404732870390
69.3672371576072
70.3327028843213
70.9659098396438
71.2940215503942
71.3402894154858
71.1239466310634
70.6586311897821
69.9476061298148
68.9786892730081
67.7224304313129
66.1334373195412
64.1530368683967
61.7129648307306
58.7415757588295
55.1745886284631
50.9702878087069
46.1245702310332
40.6791348331493
34.7198341176353
28.3675913601914
21.7659157511646
15.0676267333686
8.42281269524108
1.97056124133388
-4.16436662876348
-9.87242259119148
-15.0624940440791
-19.6693574936741
-23.6616223965430
-27.0452777647415
-29.8621334287277
-32.1854450486919
-34.1142653132019
-35.7659761494046
-37.2649136597018
-38.7263497949085
-40.2397637714180
-41.8579197263964
-43.5948617726271
-45.4306813169077
-47.3195374929826
-49.1992330464774
-51.0010377608133
-52.6571179074080
-54.1037067493276
-55.2817874141631
-56.1398399747130
-56.6410622248032
-56.7719391684981
-56.5472209539878
-56.0101030271650
-55.2296852874615
-54.2971761094932
-53.3196597937760
-52.4086804158123
-51.6635051793122
-51.1545609314510
-50.9142770600255
-50.9376022353186
-51.1889531893189
-51.6117027788192
-52.1381712948124
-52.6982817314078
-53.2246735959716
-53.6540292539724
-53.9275528512746
-53.9945914086770
-53.8202244463776
-53.3929073144257
-52.7279862132610
-51.8669448528719
-50.8743855452022
-49.8334695228483
-48.8387749827287
-47.9848658256682
-47.3508003576046
-46.9851700825294
-46.8978528318047
-47.0606570813497
-47.4143445093398
-47.8786037378961
-48.3627658353709
-48.7755565173545
-49.0320361508268
-49.0566545852206
-48.7839103545580
-48.1605781927339
-47.1517280208552
-45.7479285338804
-43.9698145903300
-41.8689722190804
-39.5257456519623
-37.0445951571859
-34.5469640607586
-32.1599984290935
-30.0004557522393
-28.1584162548082
-26.6881255335017
-25.6086477112806
-24.9107859667883
-24.5655340183246
-24.5318061792886
-24.7628656761056
-25.2105737314878
-25.8264657548575
-26.5607531064818
-27.3628729924811
-28.1854891157481
-28.9889497935433
-29.7423896731305
-30.4212993449497
-31.0031532099347
-31.4615719695987
-31.7581460527665
-31.8303958402529
-31.5761865890712
-30.8392706898908
-29.4022731791858
-26.9894807164431
-23.2768755794070
-17.9058066691327
-10.4982584527037
-0.672606635577605
11.9409908462111
27.6856855781019
46.8624145765482
69.7117190860737
96.3927422009887
126.963384793069
161.365820155250
199.417291103719
240.804114779558
285.079040367015
331.664981637055
379.868796884337
428.905328130149
477.926231700669
526.046551475539
572.366053945318
615.986557817083
656.027605825752
691.642664956457
722.038178072028
746.497310095448
764.407905129160
775.290328846640
778.818302819617
774.828561988091
763.321529806930
744.457677585615
718.551386868097
686.061664647840
647.579345362003
603.812089651652
555.569976254992
503.752946184159
449.336623493196
393.350756740088
336.848148261665
280.867390236870
226.395051141097
174.331862454149
125.465540234555
80.4518579676666
39.8045662615116
3.89215142494331
-27.0630967319413
-52.9863369631558
-73.9490258783660
-90.1609335613898
-101.954434472450
-109.763454140237
-114.099575607695
-115.525848392129
-114.626873795053
-111.975278668303
-108.100148895072
-103.465652210670
-98.4630263828053
-93.4117586092430
-88.5640351312135
-84.1098999324751
-80.1830009226749
-76.8662410808162
-74.1962192666309
-72.1675645637914
-70.7407992633966
-69.8553057210187
-69.4437088355971
-69.4429117011781
-69.8008273331097
-70.4803546093626
-71.4615166824589
-72.7410183545172
-74.3270194393904
-76.2281223701916
-78.4403686339794
-80.9388213112843
-83.6767432378009
-86.5900373938362
-89.6034724848362
-92.6373806165199
-95.6143633978724
-98.4641538300121
-101.124627633034
-103.540104941819
-105.661555290469
-107.451799795239
-108.892978286847
-109.991235029670
-110.777190592487
-111.303943917571
-111.643674289432
-111.881983288533
-112.108250923208
-112.401859483873
-112.818122859693
-113.379762040265
-114.076468630228
-114.870261730354
-115.703093595996
-116.504978202852
-117.201977817283
-117.722593249928
-118.001062106821
-117.978815682774
-117.608177486078
-116.860073585088
-115.731798767271
-114.249912355864
-112.467956818611
-110.462024617934
-108.326418631730
-106.168564468179
-104.099702490531
-102.219950934932
-100.602830605498
-99.2868875187624
-98.2765657529768
-97.5484202081404
-97.0586392914759
-96.7507014920119
-96.5626973317101
-96.4325643835122
-96.2997870476504
-96.1053732474749
-95.7944862199983
-95.3233341139060
-94.6665989080137
-93.8214366689768
-92.8082673996748
-91.6701758176975
-90.4708788064475
-89.2893800829739
-88.2091801332415
-87.3025978168511
-86.6154795867683
-86.1588557068293
-85.9097673900651
-85.8185021772387
-85.8184613317555
-85.8365779545708
-85.8026337075665
-85.6547536866149
-85.3395467660055
-84.8098328018966
-84.0257212049282
-82.9609618872498
-81.6099032173828
-79.9901936514283
-78.1418264232414
-76.1252813268387
-74.0189675290619
-71.9141063375985
-69.9050887329792
-68.0751457231669
-66.4813841147125
-65.1458571359246
-64.0559634190769
-63.1716333752719
-62.4349107120871
-61.7794536688954
-61.1386315117125
-60.4505573051888
-59.6592694632534
-58.7141260389079
-57.5717342954846
-56.2025437856064
-54.5987003794154
-52.7781432105569
-50.7840022940629
-48.6815124064304
-46.5538345085348
-44.4959034678086
-42.6038722850360
-40.9595115403210
-39.6143789092814
-38.5812671448339
-37.8358938512664
-37.3254074572088
-36.9788826693586
-36.7173767167557
-36.4623272403498
-36.1406387675266
-35.6857280529026
-35.0368290277895
-34.1410208280661
-32.9598393999162
-31.4769290550624
-29.7022726845137
-27.6723308473196
-25.4474076824361
-23.1069102371150
-20.7423872940392
-18.4471992146808
-16.3023224497655
-14.3618585168143
-12.6444369523321
-11.1334459718538
-9.78360869299328
-8.52979475936640
-7.29608244523684
-6.00448227533699
-4.58169021484553
-2.96188374047196
-1.08659041478752
1.09387919700196
3.61464095329002
6.48882717354014
9.70291439615878
13.2157460991041
16.9600813650806
20.8463292263852
24.7692673247480
28.6193430634506
32.2987004872079
35.7371236500735
38.9006978580042
41.7907792301248
44.4370207215556
46.8890032661895
49.2082192856910
51.4609816716077
53.7138003640330
56.0322684965436
58.4813443717517
61.1228175791941
64.0084370708470
67.1718639881979
70.6230988081984
74.3458483983336
78.2968894140796
82.4076192060476
86.5892632267942
90.7438674273232
94.7812623491674
98.6366149735523
102.280198718629
105.715981794991
108.973041922464
112.095705668013
115.135330080658
118.144386999540
121.173588453498
124.272184737643
127.488812593730
130.868620009141
134.445587133276
138.234059255312
142.223740717979
146.378571822771
150.638123712857
154.920940225906
159.130403892822
163.164920576966
166.933088517018
170.369726681710
173.445805817221
176.168976623142
178.577281582165
180.730514093495
182.701592265195
184.568643900063
186.408847576497
188.294907582165
190.292691668931
192.456608997766
194.821822175718
197.397223699490
200.163237081281
203.074174926884
206.062509713278
209.043416825818
211.920162214845
214.592920285403
216.972418610434
218.994558051337
220.629238372098
221.880717202657
222.782541978124
223.390789080626
223.776669289894
224.018735405190
224.196401096453
224.386383811709
224.660509488180
225.080868171498
225.691002785615
226.507110513246
227.513927858946
228.665733894377
229.890040323844
231.092396055821
232.163071992830
232.987905503076
233.463900239619
233.515330238682
233.103394680583
232.225943465507
230.909631548546
229.199173601917
227.147006944154
224.805080270388
222.220076032418
219.432664200855
216.478792374372
213.388693019294
210.181755576448
206.860527992499
203.407442161510
199.784129699305
195.932029196237
191.774620412047
187.223003313596
182.187008251982
176.591819763149
170.394714131590
163.593813032511
156.225509987045
148.354667325768
140.064033266797
131.446066378214
122.596948862764
113.612169698085
104.583724667577
95.5980879722975
86.7326667169705
78.0499038085117
69.5916507236602
61.3765676065555
53.4002233769158
45.6362307381723
38.0378642032321
30.5414764498176
23.0746545686259
15.5703195504352
7.98256865018400
0.297301468807214
-7.46610281974067
-15.2607838472485
-23.0222869883010
-30.6788491549828
-38.1597962138640
-45.4003442551739
-52.3421505679817
-58.9321074312488
-65.1242286115313
-70.8862530865250
-76.2069050893333
-81.0995846017282
-85.6024807004068
-89.7766234135473
-93.7019685111188
-97.4707264483817
-101.177058372829
-104.903278389391
-108.705816246452
-112.606492596967
-116.592344447934
-120.622303736568
-124.636631220761
-128.566140096783
-132.339773822872
-135.889423022451
-139.151521656998
-142.067225965552
-144.584770353610
-146.665460012056
-148.290589237788
-149.466096964048
-150.224394688456
-150.623647849467
-150.744045053222
-150.680519175299
-150.531556912227
-150.384826794402
-150.303563345456
-150.319315104176
-150.432950457870
-150.620508204009
-150.839797176017
-151.036729736586
-151.151785157108
-151.125568073160
-150.901728186022
-150.428016231160
-149.659383693598
-148.565181362764
-147.136972166231
-145.392680905001
-143.377075231164
-141.160207992470
-138.833564834444
-136.502549178232
-134.274334181552
-132.242103427605
-130.470349396765
-128.987190184466
-127.785836878252
-126.832156981951
-126.073684164029
-125.447673151838
-124.888054711791
-124.330813919082
-123.716565401255
-122.991024914119
-122.106925569519
-121.029761968345
-119.744948583977
-118.262050731913
-116.614666187641
-114.857416105593
-113.061521812648
-111.308805960643
-109.682323993827
-108.252845540394
-107.064973612176
-106.129442354793
-105.424506007238
-104.903665598079
-104.505453274143
-104.162780558654
-103.810435559872
-103.389360354714
-102.847514901686
-102.139788067957
-101.230936703329
-100.102538381822
-98.7597777371604
-97.2336361136859
-95.5783975851412
-93.8666910967428
-92.1835610315472
-90.6196591066813
-89.2619979901543
-88.1812812019680
-87.4192395495087
-86.9821337566104
-86.8429396885415
-86.9491655776206
-87.2319045313859
-87.6141106127543
-88.0177249610562
-88.3683663119111
-88.5960997768110
-88.6343152014212
-88.4221478039423
-87.9127795113372
-87.0830088118583
-85.9380780804269
-84.5108634588144
-82.8583674072459
-81.0576579311445
-79.2006909263307
-77.3855408101097
-75.7027007796573
-74.2195681611122
-72.9694024763199
-71.9489721833717
-71.1242600980011
-70.4405849934738
-69.8334117801476
-69.2371578284122
-68.5902133330264
-67.8359382639392
-66.9223076589442
-65.8046821114573
-64.4530113147435
-62.8594188455854
-61.0419907329099
-59.0446449112133
-56.9345009248603
-54.7973495493242
-52.7312863094939
-50.8374042028613
-49.2064624323223
-47.9044764829722
-46.9634839638809
-46.3807272594630
-46.1239028228271
-46.1386994423810
-46.3570817070334
-46.7056118648034
-47.1116968089496
-47.5059016464245
-47.8221213449248
-48.0003103886126
-47.9936015521064
-47.7759039592713
-47.3454937835234
-46.7246026893559
-45.9573505820750
-45.1067617786615
-44.2495092420223
-43.4665082060337
-42.8295475787699
-42.3880400495250
-42.1614397467014
-42.1395152216454
-42.2879488452674
-42.5555162323533
-42.8814204420077
-43.2027678398311
-43.4606520027875
-43.6025484294848
-43.5819953644190
-43.3602169008147
-42.9122209588541
-42.2340205577487
-41.3462599250234
-40.2935159979831
-39.1413898160479
-37.9727103845802
-36.8819340793569
-35.9653452615307
-35.3064880708444
-34.9613429814719
-34.9501585845652
-35.2586551835291
-35.8454735712843
-36.6513423872622
-37.6077077812392
-38.6440382114335
-39.6922461623311
-40.6867061575996
-41.5618114345209
-42.2525785748885
-42.7013539876788
-42.8671074197751
-42.7320042174707
-42.3040549810997
-41.6175398516502
-40.7319252979892
-39.7277035965029
-38.6965146048747
-37.7255225893509
-36.8815066082978
-36.2019958415962
-35.6957620867344
-35.3490089854029
-35.1328901446001
-35.0106818699453
-34.9438722598182
-34.8953701051728
-34.8288494602787
-34.7070867656696
-34.4944913971724
-34.1649725884539
-33.7098951418989
-33.1410825419639
-32.4893712438268
-31.8019231686856
-31.1398526748217
-30.5746291185197
-30.1797196952991
-30.0165511621041
-30.1200084834651
-30.4907434299150
-31.0967880290781
-31.8815310121603
-32.7740292301866
-33.6990598655180
-34.5849168543338
-35.3672051435259
-35.9886956739497
-36.3982619918885
-36.5532061745799
-36.4258893727600
-36.0105271149718
-35.3262314277684
-34.4164700746832
-33.3464706709712
-32.1987974587910
-31.0662634838886
-30.0408671938231
-29.1991483108475
-28.5886113145280
-28.2213914316024
-28.0769123615951
-28.1100716272272
-28.2608224898766
-28.4630192227585
-28.6512200763493
-28.7641070038423
-28.7445357791075
-28.5390825713876
-28.1012515826859
-27.3990654647226
-26.4227777751352
-25.1887017818094
-23.7392090828632
-22.1403379609147
-20.4773224707304
-18.8475880571796
-17.3501695087321
-16.0715758579664
-15.0719641253243
-14.3773920084028
-13.9805427600980
-13.8475221110900
-13.9269231413237
-14.1589099834444
-14.4828791116775
-14.8416483962131
-15.1811779218116
-15.4485414181854
-15.5934634137879
-15.5757868971031
-15.3748975485408
-14.9951115507489
-14.4652847811933
-13.8351644065287
-13.1709559883286
-12.5497550726468
-12.0503190276093
-11.7395178294601
-11.6591110010935
-11.8195183157965
-12.2025568916197
-12.7695334947256
-13.4703638980084
-14.2515269103910
-15.0614779003532
-15.8521317377039
-16.5764796260355
-17.1853584589624
-17.6284196632136
-17.8615020075262
-17.8562769227613
-17.6064211224281
-17.1290964475815
-16.4635871138418
-15.6680930770986
-14.8141787928464
-13.9774729128968
-13.2244777958222
-12.5996225878965
-12.1187077442208
-11.7705905582554
-11.5233891441606
-11.3309845155980
-11.1388597392117
-10.8899669395808
-10.5299411573939
-10.0101056484113
-9.28907410863950
-8.33637854940425
-7.13934284054755
-5.70953071411931
-4.08476458805973
-2.32686496767080
-0.517588145318540
1.24603302698333
2.85812465741350
4.21461578143068
5.22822844068274
5.84290337217850
6.04117775917880
5.84280620694919
5.29826571863323
4.48096774417038
3.47908724157336
2.38722252182783
1.29999550131097
0.309820400772683
-0.492819122253837
-1.02179804988394
-1.20303971794360
-0.984023072914568
-0.340509253285932
0.720681368752935
2.16203861950020
3.91842416540724
5.90336137085427
8.02013852375218
10.1778931345605
12.3080729262629
14.3741464802101
16.3715497405560
18.3208423515469
20.2585061896604
22.2278941115864
24.2717663585180
26.4280102838043
28.7293712022611
31.2051692343816
33.8804701672517
36.7706629701629
39.8748852727126
43.1724426946964
46.6223455243470
50.1639969123671
53.7183188921328
57.1908839871116
60.4800036727796
63.4902593984741
66.1464201369283
68.4008868759580
70.2326039029114
71.6407669100360
72.6372728099438
73.2398336461435
73.4668301764786
73.3350617586849
72.8606868772161
72.0611652935469
70.9540750139636
69.5513725825500
67.8529960983021
65.8442789909127
63.4973853733011
60.7744478168744
57.6311042360480
54.0213619089120
49.9063137400488
45.2673391657078
40.1191299082216
34.5158980369482
28.5485567613288
22.3356634427292
16.0118915669301
9.71639677985344
3.58251601313835
-2.26950176507179
-7.73534070434338
-12.7265662728014
-17.1723433259150
-21.0254471788038
-24.2692562366942
-26.9210479629341
-29.0306466946246
-30.6760519495144
-31.9576573244004
-32.9912837552204
-33.8979727805930
-34.7891709987478
-35.7511116420556
-36.8350307068798
-38.0561812364078
-39.3996377250536
-40.8292833288903
-42.2970737325485
-43.7505315094083
-45.1369838829566
-46.4043548892147
-47.5011863284871
-48.3801796445353
-49.0060112512151
-49.3629918501595
-49.4584923595914
-49.3223893333879
-49.0047375156067
-48.5727298339476
-48.1059588938959
-47.6876859911486
-47.3917998964904
-47.2698255358676
-47.3438406124563
-47.6069927887832
-48.0288429431731
-48.5625394828944
-49.1526046703551
-49.7420983274980
-50.2767470304851
-50.7047773400534
-50.9753442901397
-51.0409393394427
-50.8653699158392
-50.4325647307309
-49.7508728127649
-48.8524389134395
-47.7902355504407
-46.6343549607693
-45.4670014442553
-44.3738023828298
-43.4302734248392
-42.6875868057925
-42.1648142704269
-41.8506780425526
-41.7115975110930
-41.7011142113554
-41.7680658593413
-41.8626658882479
-41.9395674723401
-41.9573966649605
-41.8767520080853
-41.6610171881989
-41.2820245348864
-40.7270860492640
-40.0028931828364
-39.1360216000303
-38.1721315231181
-37.1742527864201
-36.2183308910993
-35.3839353647327
-34.7406446803237
-34.3349545095758
-34.1838129356865
-34.2764812453427
-34.5812677916671
-35.0533469628757
-35.6423135912156
-36.2985703439326
-36.9766433791374
-37.6342494107793
-38.2289551405868
-38.7168213611963
-39.0552959543988
-39.2072462902634
-39.1417855654620
-38.8311664813973
-38.2453798730508
-37.3457298289396
-36.0773188553243
-34.3588786798437
-32.0695794661314
-29.0372016546662
-25.0343795899175
-19.7853747017820
-12.9798536347414
-4.28870503123867
6.62045929647458
20.0682394663324
36.3490572514541
55.7182821207868
78.3800480571767
104.472472647448
134.049009087003
167.059774161009
203.337469062334
242.589393642745
284.395496296267
328.212245623424
373.382481824001
419.153119313735
464.702170288836
509.171326333310
551.696008075559
591.427490609497
627.548112627068
659.284017683101
685.919472802914
706.815272786545
721.431868286975
729.354781284765
730.316282972308
724.206722997093
711.073891104701
691.115121566596
664.667510226196
632.197576936469
594.289218002459
551.629113617287
504.990104743602
455.214811801655
403.201234722560
349.887770980855
296.232334800486
243.183517750851
191.647303472080
142.455112261247
96.3372683160715
53.9034824808440
15.6310768148200
-18.1386818584854
-47.1981603916908
-71.4693376986068
-91.0004757648419
-105.961013416280
-116.631511987249
-123.388267053051
-126.683876447165
-127.025509477335
-124.952016638393
-121.008940906576
-115.721043856320
-109.566706374650
